temp_mean,temp_sum,temp_std,resp_mean,resp_sum,resp_std,eda_mean,eda_sum,eda_std,emg_mean,emg_sum,emg_sum_peak,emg_std,emg_std_peak,ecg_mean,ecg_sum,ecg_sum_peak,ecg_std,bvp_mean,bvp_sum,bvp_std,label
0.5833041205991002,5249.737085391913,0.2964083636959999,0.5665527849975389,5098.975064977868,0.1843173575651963,0.3649691329106832,3284.722196196148,0.2413035122248481,0.5926836982684951,5334.153284416477,2052.8843532470296,0.0366160868641396,0.0251372298967826,0.3650924887832474,3285.8323990492377,0.4794921875,0.1065011293724528,0.3233882977971042,14.22908510307259,0.2367369051342059,0
0.349134112016196,3142.2070081457678,0.2345019467068592,0.4431578676271845,3988.420808644672,0.2400079044056448,0.4554061969094376,4098.655772184935,0.2797248902950134,0.5775588843738427,5198.029959364586,1941.3661529799865,0.0792706094653179,0.05564522939744,0.5217536246849757,4695.782622164795,0.4580078125,0.0592750849537111,0.3255631272906616,27.347302692415585,0.2621496248203585,0
0.4672411614648562,4205.170453183708,0.2020961095340609,0.5556399347921971,5000.759413129798,0.1540382835309777,0.519229570244367,4673.066132199309,0.2821172856460716,0.6055401585385639,5449.8614268470665,2066.4218830666573,0.0796266021830949,0.0581010522917187,0.3626649972916777,3263.984975625088,0.4443359375,0.1323100501325512,0.4474070229731156,25.94960733244071,0.2484559504753072,0
0.3176679206469975,2859.0112858229863,0.138529516579049,0.4875638089602111,4388.074280641902,0.2383765488936072,0.4608838407567764,4147.95456681098,0.2787024942640742,0.5792633817330657,5213.370435597588,2009.1384076579525,0.0867678579622568,0.0598304953833734,0.2802271397501034,2522.044257750931,0.5673828125,0.1459245028012856,0.4038508170592916,27.86570637709112,0.1828555311753237,0
0.3658048516247629,3292.243664622872,0.174314991212117,0.4697789258270319,4228.010332443271,0.2459425667008445,0.4813696606662514,4332.326945996274,0.264929655820727,0.5863916543477316,5277.524889129561,1991.7529954509305,0.0855595029448817,0.0594363333680568,0.2995005438101501,2695.5048942913563,0.3203125,0.1435335460977491,0.322012622698385,17.38868162571279,0.2089871490209149,0
0.489063172488133,4401.568552393198,0.1096585144197827,0.4680072059826274,4212.06485384365,0.272733898843597,0.4479362567605823,4031.426310845232,0.2669162520260826,0.5768470109977337,5191.623098979609,1988.0191874718944,0.0932173118315281,0.0643918622360682,0.2666541678559205,2399.887510703269,0.5234375,0.1394049773015825,0.4560627047046102,20.97888441641207,0.1624607031673504,0
0.3500807357441861,3150.726621697678,0.1660258201375883,0.4528412018075548,4075.570816268008,0.2548289600861656,0.4528603021449482,4075.742719304533,0.2439704736541052,0.5827170284161042,5244.4532557449575,2007.873426771683,0.0891266066222798,0.0628874489355957,0.2680382759372701,2412.344483435433,0.525390625,0.138213261620663,0.1707315692200234,13.99998867604192,0.1311242773542671,0
0.392228977568465,3530.060798116197,0.1941410667470056,0.4808652832628652,4327.787549365773,0.255125851506133,0.4607168927701018,4146.452034930921,0.2033032905176872,0.5735916368482107,5162.3247316338975,1932.426966586505,0.0846870025166012,0.0583230245095395,0.2918771255169281,2626.894129652352,0.5908203125,0.1462780281240958,0.4153228698018597,32.810506714346914,0.2216673158975311,0
0.4061301203328533,3655.1710829956855,0.1879565200730533,0.4928414431509211,4435.572988358278,0.2440793305049515,0.4856820330159415,4371.138297143501,0.2221217499542764,0.5582135606295207,5023.922045665695,1932.07949685628,0.0829215388823674,0.0586120432207074,0.2749969864810666,2474.9728783296,0.3515625,0.1387413291052056,0.3344594912604705,23.412164388232945,0.2959717708745341,0
0.3881650210149141,3493.4851891342364,0.2010492887884101,0.4948655403679579,4453.78986331162,0.2836627123569763,0.4610204693343,4149.184224008688,0.1900230731081248,0.5541697614661271,4987.527853195148,1889.26438895302,0.0822647753319267,0.0580879215387985,0.2809550314727615,2528.595283254849,0.306640625,0.1369787469444715,0.2311107128168575,12.942199917744029,0.2399766741574389,0
0.4397942951926977,3958.1486567342663,0.1223571170123246,0.5030087786371372,4527.07900773425,0.104558855200803,0.3911349174670503,3520.214257203429,0.1452011620185266,0.5747532066203018,5172.7788595827415,2003.878722906404,0.0879821559203055,0.062622270382047,0.2499341397582588,2249.407257824333,0.330078125,0.1295073934564161,0.2359310818446305,18.87448654757045,0.1796073278298139,0
0.1871532160659476,1684.378944593527,0.2949730453089052,0.4832573036418243,4349.315732776433,0.1977820075461442,0.4498075518519024,4048.267966667113,0.135609531292198,0.4062418942964165,3656.177048667759,1370.822460829566,0.0522918258025644,0.0393262032314961,0.3224528968956742,2902.076072061062,0.5224609375,0.1284563308394005,0.2958955896401308,18.937317736968375,0.1681563834895039,0
0.64201412345395,5778.127111085548,0.3014685736418048,0.5850464426125175,5265.417983512642,0.1013727865807227,0.5191197911720621,4672.078120548578,0.1554470174889115,0.4305340410263717,3874.806369237357,1414.695714359896,0.0573212870886,0.0450155721035789,0.295952014988755,2663.568134898805,0.3154296875,0.1363281523153101,0.3159441000235496,20.536366501530736,0.2366652406146406,0
0.5580784130492287,5022.705717443054,0.2345127592922952,0.2855460504764908,2569.9144542884164,0.1781694591381038,0.4106081369830041,3695.4732328470336,0.2120845013371133,0.5894512437300666,5305.061193570605,2050.710082517322,0.0778200767456181,0.0503128827459841,0.2831563646856658,2548.407282171,0.4248046875,0.1085706133036865,0.4445552025551823,19.56042891242802,0.2465139965456983,0
0.5250529317430606,4725.476385687549,0.233728511501626,0.3157299367819837,2841.5694310378576,0.1693150392814961,0.5295459621064493,4765.913658958056,0.2711698299707973,0.5798940254359952,5219.046228923957,2058.014304185688,0.080473331780283,0.0536406618345414,0.3434646532882711,3091.1818795944373,0.3994140625,0.1106725633614983,0.3727568403843773,13.79200309422196,0.2441998042627177,0
0.5572190588766194,5014.971529889573,0.237901229812158,0.3660996940030937,3294.897246027848,0.1434342571580818,0.5226683837544153,4704.015453789722,0.2931738561902419,0.557719067262378,5019.471605361416,1976.0379283582895,0.0809856378849461,0.0538918557590446,0.3506231631208627,3155.6084680877702,0.4609375,0.1051588294099593,0.4083148928391237,21.640689320473555,0.2473697238969823,0
0.2437994698873511,2194.19522898616,0.2286426528493579,0.3365600020244201,3029.0400182197886,0.1513921293213886,0.3811119992329245,3430.0079930963084,0.1685154293182878,0.6348863960952763,5713.977564857465,2222.081636852461,0.0726820764414791,0.0473377244617498,0.3132373813332305,2819.136431999075,0.4375,0.1082933621120384,0.390395923218468,18.73900431448647,0.2320056589138579,0
0.2867961266255724,2581.1651396301536,0.2547676912957445,0.3576986131991031,3219.287518791917,0.1456149630661616,0.5702530820406867,5132.277738366156,0.242224706010123,0.6106494818637319,5495.845336773614,2180.389159895221,0.0813823446849151,0.0525550589677664,0.2489603578737,2240.643220863306,0.5791015625,0.1091630228584439,0.491949220160766,30.500851649967498,0.2481462281833681,0
0.6725825948035554,6053.243353231994,0.2503726659851209,0.4343563060775554,3909.206754698013,0.18915245497256,0.5024620162270408,4522.158146043381,0.2516620904089644,0.5419364880654118,4877.428392588695,1930.4671263112075,0.0783269288904048,0.0502140105260442,0.2460858702662396,2214.77283239615,0.341796875,0.1129645640534316,0.4291782146835623,19.742197875443868,0.253493443661966,0
0.5109123069827572,4598.210762844814,0.2006823582881368,0.3725091148662313,3352.582033796075,0.1989563687733393,0.3337332534308302,3003.599280877471,0.2097162231381613,0.6084043729853169,5475.639356867845,2124.223479672463,0.0872549450870936,0.0562209729893441,0.2694387476172817,2424.9487285555388,0.4775390625,0.1086353521863929,0.3315541013824376,17.572367373269195,0.2069776258003916,0
0.4940370100426367,4446.333090383728,0.2900136566529331,0.5276628788729749,4748.965909856776,0.1261016026548703,0.3787372861902132,3408.6355757119227,0.1930762656596485,0.591310244912589,5321.792204213283,1972.4291017030628,0.0802048167225511,0.0561387663304888,0.2251356075774216,2026.2204681967976,0.3984375,0.1048433507885903,0.4631792317698966,12.969018489557106,0.266746703592387,1
0.3680219608601913,3312.1976477417256,0.2899234078666715,0.429096897723897,3861.872079515083,0.2872264399203533,0.4933737475021528,4440.363727519395,0.2234836242587298,0.5919264999755672,5327.338499780104,1985.5855997772333,0.0801079278455841,0.0541781053233786,0.218194518069236,1963.750662623126,0.4033203125,0.1057406758605372,0.3795609327594352,18.978046637971755,0.2515368427539061,1
0.5222571116010122,4700.314004409099,0.2734724396528053,0.4952519566933447,4457.2676102401065,0.2225243080585004,0.4031575529075561,3628.4179761680016,0.1576454796069854,0.5808656639934254,5227.790975940799,1957.3376488798133,0.0725161940594332,0.0542641545400851,0.3001842823694619,2701.6585413251555,0.45703125,0.0894337912506477,0.3324185974050667,14.293999688417866,0.2936710276843847,1
0.5943728161975946,5349.355345778332,0.251715278156628,0.6072727496196929,5465.454746577243,0.1665313778812524,0.3808700792595279,3427.830713335733,0.2368125749889425,0.5342060482253309,4807.85443402798,1856.7055048021805,0.0752471629945488,0.0535648475872906,0.2769383363019261,2492.4450267173397,0.3037109375,0.0986030762916708,0.3707494319470879,10.010234662571376,0.2902076078673941,1
0.3953142121007631,3557.827908906843,0.3063019318730075,0.6964531590052814,6268.078431047514,0.1412320080301747,0.6617247524372052,5955.522771934864,0.3233977166448474,0.5138864117605434,4624.977705844884,1832.4301053452084,0.0562398025139335,0.0478240122648022,0.205108455273754,1845.9760974637863,0.552734375,0.1388823680638058,0.372449611750195,8.93879068200468,0.2842475924956111,0
0.3481264140513596,3133.137726462234,0.3005162224979463,0.5871925204003358,5284.732683603034,0.1535535007271022,0.4534910848105993,4081.419763295397,0.2931136597481428,0.4278364467013378,3850.528020312032,1546.0528673649872,0.0616414133809935,0.0489349970685403,0.2023762882228555,1821.3865940056976,0.4970703125,0.1393966281117849,0.3613138551526752,18.427006612786435,0.2920557220511118,0
0.4593197870268371,4133.878083241535,0.3217792225435161,0.616650720507087,5549.856484563764,0.1277168416043797,0.4941473460473263,4447.326114425968,0.2956371406389112,0.4920323100056073,4428.290790050461,1637.6956075358305,0.0342174423274166,0.0312772929652897,0.2268363448104805,2041.527103294324,0.31640625,0.1413594855305903,0.3603892769451171,14.775960354749804,0.2953299166950035,0
0.4333585296850513,3900.226767165452,0.2606853337828079,0.5861309063484922,5275.178157136431,0.1152916030032011,0.4721240462565076,4249.116416308575,0.256392516444375,0.4873310167629166,4385.979150866252,1726.9304073660323,0.0445742409860139,0.0396123187066668,0.2308380298298682,2077.5422684688124,0.3095703125,0.1394455804530714,0.2790162540974795,15.345893975361376,0.2346756833827075,0
0.4624934180797238,4162.440762717533,0.1591219658581004,0.4583725034459412,4125.352531013468,0.1850097138754716,0.4599443373380477,4139.4990360424335,0.2673468233097688,0.5700438681548511,5130.39481339366,2004.9002171853288,0.0341124264178482,0.0294719062722432,0.2218900942031234,1997.010847828113,0.4365234375,0.1408974381434056,0.2302908354553176,12.435705114587154,0.2376412032606139,0
0.4853018815171849,4367.716933654657,0.2023482848651236,0.4786898913653604,4308.209022288253,0.1971726419315188,0.4615004945647828,4153.504451083045,0.216490071062322,0.4993717126032687,4494.3454134294025,1884.527566341373,0.063594996231457,0.0445365964795961,0.2146106648571824,1931.4959837146475,0.34375,0.1457852989036637,0.4117499072610705,20.587495363053524,0.2852570989596626,0
0.3557282565520921,3201.5543089688176,0.1993440309275521,0.5263707646133122,4737.3368815198055,0.1150565475377492,0.4412831101455375,3971.547991309846,0.2622533569605355,0.5789957729528691,5210.961956575824,2109.548824510264,0.0661926401054055,0.050389227060234,0.2152072829227624,1936.865546304865,0.2802734375,0.1410167585374323,0.4264134075562037,26.86404467604084,0.2513745169062449,0
0.5764177505917645,5187.759755325889,0.2234243729558909,0.6263349027671756,5637.014124904601,0.1099289614884733,0.4202849438150705,3782.564494335636,0.2261906051926385,0.4086057896826298,3677.452107143685,1471.9923390111585,0.0366524083217759,0.028760357990168,0.2211840777032604,1990.6566993293447,0.2958984375,0.1380348784717998,0.4295791217436615,19.76063960020843,0.2357783069593164,0
0.3740597879228425,3366.538091305581,0.1732335881694741,0.6050419609079539,5445.37764817159,0.1276859598616957,0.4257317676988938,3831.585909290063,0.1423773289986425,0.4492698531058673,4043.428677952812,1475.4933184341894,0.0419576274193688,0.0428325816107048,0.2126729574996727,1914.0566174970488,0.587890625,0.1413843260388926,0.2541453450050139,19.06090087537605,0.2835907412259576,0
0.4268375442317682,3841.537898085912,0.127046349106508,0.5449959625936113,4904.963663342475,0.1289045691757302,0.4428216377496784,3985.394739747122,0.0991170786429457,0.5412660021131137,4871.394019018006,1837.8617884123323,0.0418243029110771,0.0404138057859578,0.203499343407218,1831.4940906649529,0.5908203125,0.1418797097896792,0.2123381578996769,11.890936842381905,0.2507627361488869,0
0.4792690215937467,4313.421194343708,0.2915481874242122,0.5376419871487927,4838.777884339112,0.136513373595336,0.5029303142976441,4526.372828678803,0.108233519100661,0.5101818617049981,4591.636755344977,1917.48053291266,0.0899874218595252,0.066860498721324,0.2189655319798632,1970.6897878187683,0.2880859375,0.1414741038642383,0.4035657000301512,20.985416401567853,0.2666016120222743,0
0.3283742752813176,2955.368477531853,0.2582254435140484,0.6430837653718566,5787.753888346718,0.1106045648388332,0.3784475006780108,3406.0275061020925,0.1747811520970825,0.4315379796239241,3883.841816615316,1502.9234317573562,0.0362104313858026,0.0305838832985926,0.2165338754700723,1948.8048792306488,0.375,0.1415888026613459,0.2937039359148697,10.867045628850178,0.235318715421206,0
0.4375480498915005,3937.932449023504,0.1695754828522003,0.5126925138631585,4614.232624768425,0.1354559927963372,0.2951793478811464,2656.6141309303084,0.2046648923246078,0.5124679297222416,4612.211367500171,1865.4946189703155,0.0473542874336905,0.03642994448525,0.2475399344419273,2227.8594099773427,0.3017578125,0.1356594386972304,0.4021370986297356,31.366693693119373,0.2459258366001989,0
0.4017770220041629,3615.993198037468,0.2543968923435389,0.3718099034571455,3346.289131114293,0.1943699753478984,0.1630640534084398,1467.5764806759582,0.2090027174373772,0.4038086488104037,3634.277839293624,1514.479553770583,0.0644570881009225,0.0504075775894334,0.2957197751182635,2661.4779760643937,0.294921875,0.1518924618725143,0.4438312541345935,30.62435653528696,0.1962767560616198,0
0.5684060924769124,5115.654832292207,0.3643308228755825,0.4263469141716612,3837.122227544956,0.1926536103185926,0.4092087953902854,3682.879158512569,0.3437683625919617,0.5301779169469217,4771.6012525223205,1947.1755284981807,0.0601897994574209,0.0454005464442721,0.2723975246152157,2451.5777215369462,0.328125,0.1445145497794598,0.4132658746097064,28.515345348069744,0.2016118041990607,0
0.4830668355590994,4347.601520031902,0.2968341013104601,0.4727299369310641,4254.5694323795615,0.1842162793753073,0.2763879996946926,2487.491997252247,0.1861219985452076,0.4801576643305622,4321.4189789750535,1738.9828668427772,0.0467953388165962,0.0407467656952969,0.3154602006079795,2839.141805471813,0.447265625,0.1344386428162745,0.5349995676710131,27.819977518892685,0.2090990560795954,0
0.943317449730534,8489.85704757482,0.0316365268809712,0.795214011244116,7156.92610119702,0.0726020958810093,0.9055146753656792,8149.6320782911,0.0713707697187946,0.913251839845462,8219.266558609157,3044.8212900464287,0.031365071899891,0.0328737087629873,0.5080347776550143,4572.312998895145,0.2939453125,0.0892646215782251,0.4133824525954781,14.468385840841734,0.2265976846448731,0
0.3466365611926866,3119.729050734197,0.2768004481043891,0.3648970044532789,3284.073040079518,0.1484196951437814,0.6044235876903815,5439.812289213412,0.3023580729271559,0.5075316098877337,4567.784488989594,2045.5562855291685,0.1122770473842047,0.0737397776556047,0.2615162891921416,2353.646602729274,0.462890625,0.1514805163975396,0.4331572005085921,17.32628802034368,0.2487184545544845,0
0.3103635240959478,2793.271716863528,0.1933362477551164,0.3674104369979439,3306.693932981503,0.1605186406621445,0.4816040979590508,4334.436881631447,0.2844382260909836,0.4755969736485582,4280.372762837007,1941.795542351133,0.1052508314390304,0.0705870306199409,0.2686666306605326,2417.999675944792,0.359375,0.1427215684367453,0.3967331061402112,12.29872629034655,0.2365116323141467,0
0.47719494735396,4294.754526185656,0.2234233643235572,0.4435120555283529,3991.6084997551898,0.1767742590572942,0.4690982020837858,4221.883818754071,0.2914423124976283,0.5143956949649101,4629.561254684197,2080.0098200997813,0.1054183708505808,0.0674780468738772,0.2448526641400951,2203.6739772608557,0.4814453125,0.1437887931831209,0.4603724189305065,20.25638643294229,0.2163541731350661,0
0.4322020227651707,3889.818204886541,0.1280487519582138,0.5406542827112287,4865.888544401065,0.1519247806728799,0.4919045768332817,4427.141191499545,0.1785091126304496,0.4990771831964256,4491.694648767808,1748.2584339240564,0.0618748545848453,0.0506325391142426,0.2634686711593174,2371.21804043385,0.34765625,0.1280797755632833,0.5291541399084291,8.995620378443295,0.2990196577793143,1
0.5977441577477254,5379.697419729526,0.19161617123077,0.4583344128133612,4125.009715320264,0.1659170905920619,0.4612329811020127,4151.096829918104,0.284994861505106,0.4899879149448868,4409.891234503985,1681.4098033686437,0.0723660183493527,0.0592563162188993,0.2172580882975424,1955.322794677881,0.4443359375,0.1360641896380248,0.3475674250774454,9.384320477091023,0.2273458683734777,1
0.3363361766781366,3027.025590103241,0.1820627420287769,0.5935550642655425,5341.99557838987,0.132861988615465,0.3874217689202351,3486.7959202821166,0.1891124247410832,0.5111138043053516,4600.024238748155,1774.400275441351,0.0630293224708405,0.0528605100072244,0.2144287536692146,1929.8587830229317,0.2939453125,0.1355030942044833,0.4422067032915425,4.864273736206968,0.3099551659226779,1
0.6784417589795233,6105.9758308157225,0.2048790880462946,0.643568012010547,5792.112108094921,0.1317037265450182,0.499520477885625,4495.684300970641,0.2057440759842899,0.5161428251108122,4645.285425997307,1741.9881077164496,0.0458288473619519,0.0436766402380518,0.2061833027690389,1855.6497249213492,0.3759765625,0.1368812661015587,0.3829410150429456,7.658820300858911,0.2757213947081923,1
0.4027761646110703,3624.985481499634,0.1930595749346589,0.5912733097373235,5321.459787635901,0.1320025375644417,0.3427310948357585,3084.5798535218373,0.1735297478122524,0.4860304772760899,4374.274295484807,1778.0277909916272,0.0788910187760496,0.0652775178435172,0.2570142613463777,2313.1283521174114,0.5546875,0.1092698415613796,0.2897842192137718,15.648347837543678,0.2501956633660692,0
0.490647767702873,4415.82990932585,0.1072208868311162,0.478863184794588,4309.76866315128,0.1839818001657978,0.5326423871126063,4793.781484013434,0.0879178724728036,0.542514029307502,4882.6262637675,1927.4308342266436,0.0763273996523893,0.0501277742114613,0.2319605887172888,2087.645298455589,0.34765625,0.1077404558323892,0.2910807567203519,20.37565297042465,0.2366772555819502,0
0.4638506657574247,4174.655991816847,0.1323328144326972,0.4630609400954635,4167.548460859162,0.1442098240370053,0.3227268728394683,2904.541855555219,0.0853455943238201,0.6067400100227125,5460.660090204398,2157.174766420678,0.0998819160622378,0.0643756555391587,0.228212322872486,2053.910905852371,0.3837890625,0.1087018645978813,0.2121172571703533,15.908794287776498,0.2126215959828193,0
0.4076878556518258,3669.190700866408,0.1381833638849255,0.4900994941687225,4410.895447518515,0.1430115520834628,0.5159191889467174,4643.272700520448,0.0997926317754705,0.5980648443972567,5382.583599575305,2075.822390958671,0.0865106783909448,0.0544470105466877,0.2295967794354349,2066.3710149189155,0.2822265625,0.1081899357109639,0.2115337307963989,14.807361155747929,0.2703184051868579,0
0.4585616830580865,4127.05514752277,0.2124562532376095,0.5279205376968154,4751.284839271345,0.1288161814113214,0.3687048664151759,3318.343797736589,0.0901923271122689,0.5497093279706937,4947.383951736236,1948.3264422954971,0.0830537296064353,0.054739331099273,0.2335111615876936,2101.60045428924,0.3095703125,0.1109830340759681,0.2617944630625697,18.84920134050501,0.1921533673308498,0
0.555991291188178,5003.9216206935935,0.1677684407540325,0.4559958259091968,4103.962433182782,0.1496584404609818,0.6225786642651189,5603.207978386071,0.0752294891434375,0.5637487180134165,5073.738462120735,2008.296813892597,0.0823344916456992,0.0539285802991073,0.2260713338172667,2034.642004355408,0.3154296875,0.1074933171070068,0.2783623107541272,23.939158724854945,0.2843082639360737,0
0.5445868226933921,4901.2814042405325,0.1652080049049541,0.5930643845337609,5337.57946080384,0.1321186805040292,0.4430099533702157,3987.0895803319568,0.1182864146617719,0.5958425483119191,5362.582934807231,2160.963957574151,0.0968927174982308,0.0628711721063568,0.2475622634410821,2228.06037096974,0.314453125,0.108904434677549,0.2752269486055223,22.29338283704731,0.2340066584155165,0
0.4920210171821306,4428.189154639171,0.1405796664270942,0.4089250911185191,3680.32582006668,0.1660331942979311,0.3937515897603765,3543.764307843391,0.0953745058017258,0.5683867442845771,5115.480698561193,2009.248664458785,0.0883528921846732,0.0578576162596062,0.2196437868934923,1976.7940820414372,0.3154296875,0.1075992742712251,0.271634031511639,23.360526710000965,0.3010924761320416,0
0.4963826128462144,4467.4435156159225,0.1441547325217179,0.4830966676441529,4347.870008797379,0.1831186028736025,0.4960063136283063,4464.056822654745,0.0839358926146037,0.607681592891374,5469.134336022346,2107.4453375592734,0.0850289677186348,0.0555195248468832,0.214813691376001,1933.3232223840143,0.341796875,0.1096716890923848,0.2324567314280715,20.223735634242228,0.2606578057759183,0
0.5179930021579249,4661.9370194213225,0.1367003781587459,0.4252352586029216,3827.117327426283,0.2235336034609999,0.3587035936917277,3228.3323432255515,0.1202239616161487,0.6407500765591257,5766.750689032137,2222.271147864796,0.0790150434143678,0.0501362672376413,0.2141848933102742,1927.6640397924732,0.3740234375,0.1084038389336494,0.1857264783207837,16.901109527191323,0.2245830469235107,0
0.5826593552901831,5243.934197611667,0.1880700527987282,0.435121490554902,3916.093414994102,0.1046113065410762,0.3472921906722819,3125.6297160505487,0.160344871016328,0.5506283409543328,4955.655068588985,2015.0767902686327,0.0879039754088328,0.059605330024647,0.2375381338662092,2137.8432047958827,0.4091796875,0.110733360487928,0.3187567872925895,22.950488685066446,0.2457063096543785,0
0.4715952851124652,4244.357566012178,0.1489993913987665,0.5132079467192618,4618.871520473374,0.191189404385613,0.438405741766816,3945.651675901335,0.1177720915514047,0.5467400112475863,4920.660101228281,1893.7340972509785,0.0837788202405038,0.054689668757414,0.2201466751598962,1981.3200764390608,0.3759765625,0.1084588582553288,0.2023240436013836,16.59057157531346,0.225521001980684,0
0.5156922136983333,4641.229923285,0.1112115276621291,0.4810506929083704,4329.4562361753215,0.2234206319822228,0.4020672923275238,3618.605630947728,0.087759038875497,0.6063754862375291,5457.379376137761,2119.583263284826,0.0967908379948076,0.0629896449729117,0.2100009165803648,1890.008249223285,0.5078125,0.1110528337464147,0.1876099946544201,16.697289524243384,0.2277269999494626,0
0.2319128635558074,2087.21577200227,0.161602150565862,0.6273692038481903,5646.322834633699,0.1354197677523223,0.5096437401488069,4586.7936613392685,0.0853868388264152,0.6226931324198659,5604.238191778806,2098.3009442455354,0.0755414287443397,0.0527021505337416,0.2188136803129543,1969.3231228165937,0.447265625,0.1033475847786918,0.2580241599933652,21.674029439442677,0.2306544739499057,1
0.6099950182643414,5489.955164379079,0.320136915749014,0.5309059823784983,4778.153841406466,0.1435388779660641,0.3796236757194384,3416.613081474942,0.1037768001031184,0.6243486644020683,5619.1379796185975,2114.4157006076207,0.0687166081308793,0.0475804415374982,0.2878899583799749,2591.009625419769,0.353515625,0.1007669327631276,0.2415755698330859,17.87659216764835,0.2491170055969219,1
0.4516218486068356,4064.596637461521,0.1110363779784254,0.4004223950480318,3603.80155543228,0.1439457970549233,0.337782009248982,3040.038083240826,0.0819916985339013,0.6545535489885964,5890.981940897367,2209.2395355617014,0.0809374971906452,0.0550413622419793,0.2210267904148069,1989.2411137332635,0.515625,0.1072427434364301,0.2986112369729751,26.576400090594785,0.2343531513239951,1
0.4123402903463663,3711.062613117293,0.0834421748140536,0.5271990605449288,4744.7915449043785,0.2464540971125046,0.4512180003671967,4060.9620033047786,0.1091422682615812,0.6643337357701222,5979.003621931103,2210.7319445136723,0.0654867372324028,0.0460783503065683,0.2274075328856315,2046.6677959706772,0.349609375,0.1070569463761963,0.259551360373962,18.16859522617733,0.1634404285195727,1
0.4285500603242538,3856.950542918283,0.2606096052526433,0.4300094519670121,3870.085067703121,0.1680731961037391,0.4642727844213119,4178.455059791821,0.2476126898190222,0.5376271752249899,4838.644577024918,2001.2030950415285,0.0894446228721112,0.0609741198501426,0.3440037810317896,3096.0340292861047,0.4560546875,0.1038340094708306,0.3333842722379427,20.66982487875245,0.1960234920884782,0
0.5867016315313012,5280.3146837817385,0.2653696931494258,0.5269896824431817,4742.907141988646,0.1623293249781664,0.4511885112202138,4060.696600981911,0.2025033182407285,0.5348600476217603,4813.740428595836,2034.3892778902955,0.1023373996341102,0.0702986627063265,0.2722487457171443,2450.238711454303,0.408203125,0.1080703066004265,0.4248004697456261,14.868016441096914,0.2579530545592152,0
0.5661583308743975,5095.424977869575,0.1247667546089109,0.5423546494233595,4881.191844810216,0.1524285264017195,0.445543679259308,4009.893113333777,0.2151219789833277,0.5285743287920434,4757.168959128407,1957.2492034753957,0.0825182670125438,0.0582473479821797,0.2666620067029729,2399.958060326764,0.3505859375,0.1118841811134404,0.3542913256830526,14.1716530273221,0.2468930754833884,0
0.5404483734300006,4864.035360870028,0.1943867394485315,0.3714033991730101,3342.6305925571114,0.1367834511131136,0.3821747418815231,3439.572676933705,0.2270164848962633,0.5382335926500967,4844.102333850851,1953.1958765751776,0.08127648187414,0.0579092940846398,0.261169503868799,2350.525534819192,0.2890625,0.1121626658876812,0.6002574065635538,23.410038855978595,0.2283059537187445,0
0.5379637286369907,4841.673557732921,0.1907899334864172,0.4154045478853747,3738.64093096837,0.1708880442662946,0.4757011751589231,4281.310576430302,0.2258320635058873,0.5439999340355106,4895.999406319584,2105.859717121456,0.1173913170420671,0.0758444479142211,0.2773121595724952,2495.809436152457,0.423828125,0.1184729132658215,0.4260763579260091,29.399268696894627,0.2142925140362066,0
0.6048533869110816,5443.680482199756,0.0917861048421991,0.3996775879995881,3597.098291996286,0.182873820218617,0.3171583614486152,2854.4252530375347,0.1498967376460338,0.5227900984251712,4705.110885826538,1974.2697416391568,0.0923139232654632,0.0607451613229089,0.2833046880756496,2549.742192680844,0.5908203125,0.1198773654256208,0.3605549085093221,24.878288687143225,0.2210549318286022,0
0.6010409547760407,5409.368592984364,0.0960465774669871,0.437409926786017,3936.689341074145,0.1719070822635671,0.3431557712596697,3088.40194133702,0.2255079493685096,0.4864888204250651,4378.399383825596,1766.5144641370418,0.0660442024265172,0.0457293900638703,0.2869222426131097,2582.300183517985,0.439453125,0.1166849848814231,0.4301041115262721,27.096559026155127,0.2093822169819386,0
0.5464061704258836,4917.655533832924,0.2322136463170121,0.5015803656727875,4514.223291055082,0.1302667719154249,0.3675464143509924,3307.91772915894,0.2357086464428231,0.5529940104853881,4976.94609436848,2044.9044653810763,0.0782902679321993,0.0560229026939785,0.357621705048502,3218.595345436513,0.4580078125,0.0966459730859325,0.4405862695293178,19.826382128819304,0.2247888866821702,0
0.5430369095515952,4887.332185964343,0.1594790134096002,0.5129068249924096,4616.16142493169,0.2165038399543202,0.4542710347062614,4088.439312356351,0.2744917137616203,0.4749137867538436,4274.224080784602,1638.1988891187214,0.0404213759678324,0.0320080904934385,0.3452250948269444,3107.025853442488,0.478515625,0.0968218501873083,0.4299898421126649,20.639512421407915,0.249902647407217,0
0.6290621107906221,5661.558997115613,0.1608112538753046,0.5277621814871413,4749.859633384284,0.1220554959182072,0.4769352180709995,4292.416962638993,0.2539930536665122,0.508810617281862,4579.295555536774,1835.1389656686488,0.0846517936113837,0.0569272364987055,0.3270762137443545,2943.685923699185,0.33203125,0.0981346505647247,0.2254825814331972,13.303472304558628,0.2428481321025259,0
0.5406214328783643,4865.592895905258,0.0946895783914488,0.452688045928289,4074.1924133546,0.1956117460837118,0.4269560029649955,3842.604026684962,0.2736493440843807,0.5258836585007308,4732.95292650657,1918.151558437505,0.0852948433354514,0.0562773628673562,0.3178759362961763,2860.883426665594,0.4150390625,0.0983926240414778,0.2340733783330981,9.831081889990118,0.2219692311920931,0
0.5504985002012566,4954.486501811311,0.104239167283269,0.4133613878547674,3720.252490692929,0.2360392510543331,0.4503330713667144,4052.997642300411,0.2512613065992763,0.5631063392309001,5067.957053078077,2085.3615190453006,0.0943765380183917,0.0621663480418356,0.3188342686315388,2869.508417683857,0.5908203125,0.0966895455373712,0.3725314066842267,20.11669596094825,0.223507274374951,0
0.6094070061694188,5484.663055524768,0.1188563432590277,0.4659271546720923,4193.34439204884,0.1133890097812615,0.5173407033334255,4656.066330000815,0.2524557350592198,0.5948511879261479,5353.660691335332,2156.223888109981,0.0926239857192201,0.0614067597564982,0.3289768627222317,2960.791764500073,0.4853515625,0.0958117521418417,0.1542224631290542,9.716015177130416,0.2199573168453687,0
0.5841929486546126,5257.736537891497,0.1809795938579577,0.3629956517969021,3266.9608661721086,0.1729664483999034,0.5027989022899927,4525.190120609936,0.186904340832026,0.4496293000667396,4046.6637006006567,1613.982487944028,0.0684626645943346,0.0457606699406578,0.3213559416287395,2892.203474658652,0.328125,0.0970034016230095,0.1745029298611298,13.087719739584736,0.2353822745489313,0
0.6126797884797819,5514.118096318025,0.1143829663426926,0.4416836383375956,3975.152745038366,0.1927008667046926,0.4434146171462951,3990.7315543166583,0.13868947057504,0.485647603803651,4370.828434232857,1720.54567598395,0.0597559697151264,0.0393885057433825,0.3251103066950733,2925.99276025567,0.51953125,0.0977459796764038,0.302007993321026,19.02650357922464,0.2841252386062001,0
0.5634417057010059,5070.975351309064,0.1244655773085357,0.5063069423971729,4556.762481574551,0.1722734020518018,0.4281297958622856,3853.168162760557,0.1594360892691962,0.5420586734138061,4878.52806072422,1986.8391763654292,0.094785110859963,0.0622482130827862,0.3335731625032072,3002.158462528869,0.37109375,0.0967223512337904,0.33100425636431,19.198246869129974,0.2449749758019814,0
0.5713136098775289,5141.822488897757,0.180874103347142,0.4774010746205649,4296.6096715850845,0.0984499839311333,0.4293918140578357,3864.5263265204967,0.1370166270344197,0.5004778279382293,4504.300451444068,1848.942226120224,0.0825375920286208,0.0582635877404804,0.3339753256119191,3005.777930507267,0.3056640625,0.0969241417195949,0.3781565340525082,18.529670168572903,0.2806270104605394,0
0.5275515224635183,4747.963702171651,0.151382081586837,0.4168913741794593,3752.022367615125,0.1556777264516846,0.4170280263391552,3753.252237052394,0.1450351768256819,0.546747315540145,4920.725839861304,2005.6763136753848,0.0859179235120552,0.0610381810348317,0.3365342472046279,3028.8082248416445,0.537109375,0.0983343751157865,0.2778216491137995,15.002369052145175,0.2061962497620836,0
0.5110060342746802,4599.054308472129,0.1255586881264613,0.4505395281650682,4054.855753485605,0.2395575719328876,0.4570417299984616,4113.375569986172,0.1433461311380067,0.5734004284717122,5160.603856245417,2098.550861272836,0.090440477075707,0.0596784308020585,0.3192339259543148,2873.105333588828,0.3974609375,0.0983082552926665,0.1482129568987972,10.374906982915812,0.1839402403396733,0
0.5489797819203202,4940.818037282891,0.1207185822826398,0.5678870101840054,5110.983091656044,0.1653646046247142,0.5125180270628584,4612.662243565735,0.1023341327249073,0.5505575964199092,4955.018367779179,1981.8011815401053,0.0808619786767052,0.0558948846330193,0.3179743614086898,2861.769252678211,0.375,0.0979789712249898,0.2908523018226148,20.94136573122827,0.2653340998856067,0
0.6394825683863634,5755.343115477308,0.112545023425378,0.453865378438655,4084.788405947874,0.1526211497430509,0.361292109554657,3251.628985991916,0.2148254923669529,0.5167827491785798,4651.044742607218,1758.5251531130714,0.0669695033304829,0.0528889580785488,0.3324057266813404,2991.651540132056,0.3779296875,0.0965992424736978,0.393229818263596,13.369813820962262,0.2415736129934805,1
0.6289774714166442,5660.797242749749,0.1058736087227225,0.4904420132868115,4413.978119581302,0.1917325001519286,0.3965791595801526,3569.212436221369,0.2129649540263334,0.5395715371988561,4856.143834789713,1781.7577684910084,0.0508990262956264,0.042554280112385,0.3349467934143144,3014.52114072884,0.5810546875,0.0980595554496918,0.43253575455343,20.329180464011213,0.2596311882427071,1
0.5865203883665604,5278.683495299066,0.1025742649456846,0.5117808044111525,4606.027239700382,0.150258148423632,0.3046496338673241,2741.8467048059188,0.1723545679866561,0.5776433362809121,5198.790026528192,1965.1210811080985,0.0797312420047355,0.0613651012315729,0.3334466886958883,3001.020198262996,0.509765625,0.0975563935070206,0.4222915464729897,11.401871754770722,0.2530040675759795,1
0.6198605641911342,5578.745077720227,0.0996712365902794,0.5273401502501324,4746.061352251195,0.0961260620417385,0.3641187002512592,3277.068302261329,0.2091118980575662,0.5946127589875184,5351.51483088769,1923.7394087276448,0.0443023037013764,0.0364996706203679,0.3276096854891232,2948.4871694021144,0.3359375,0.0981326244756313,0.2702080601023314,17.83373196675387,0.2500169224329756,1
0.438825823732233,3949.432413590112,0.1460591170197359,0.3688615766881283,3319.754190193164,0.197247546939847,0.2167938692322272,1951.144823090048,0.1836534006956758,0.547677252265602,4929.095270390436,2008.8061431911449,0.0806606588755918,0.0530853225742294,0.4043491267885581,3639.142141097033,0.2919921875,0.1092996464072363,0.441932362676447,13.257970880293412,0.2361836893492301,0
0.5688227516074643,5119.40476446717,0.281957007962257,0.2961948479559015,2665.7536316031105,0.1594616920426442,0.3124839691860129,2812.355722674115,0.1760811945580709,0.6087587043320305,5478.828338988251,2226.30872561522,0.0771899056346829,0.0502942866355019,0.4071945831690549,3664.751248521484,0.4736328125,0.1070645912614844,0.4651453080670607,15.81494047428007,0.2122996105316254,0
0.5559890263656883,5003.901237291198,0.2189925402194336,0.3805165710448562,3424.649139403699,0.1478889703765601,0.2996442902596417,2696.7986123367955,0.1739671175488865,0.6469755707490619,5822.780136741565,2293.909488765002,0.0645589538609921,0.0448000384537569,0.3953208070815902,3557.8872637343247,0.4609375,0.1089398741481868,0.3825967832458174,9.564919581145436,0.2808051125192207,0
0.4143556076995215,3729.200469295699,0.2785870377588506,0.420959791690692,3788.638125216223,0.1768699243682893,0.3440262418297306,3096.236176467577,0.1967077529712829,0.52628711892295,4736.584070306514,1842.3704484126145,0.057484154723536,0.0416956936488604,0.4611169972382931,4150.0529751446375,0.3828125,0.0986036687911726,0.4894531288307578,24.47265644153789,0.2264006213061991,0
0.431420758373726,3882.7868253635247,0.153567081648811,0.4557543194554277,4101.788875098849,0.2036162071156143,0.2783163244248756,2504.846919823871,0.1761848009322269,0.5606203973854107,5045.58357646871,2057.688492266936,0.0813799762835509,0.0530393701831797,0.385411922942285,3468.707306480577,0.31640625,0.1063622718624814,0.4973587094433046,23.873218053278613,0.217962071893474,0
0.4547640956610921,4092.876860949826,0.246250262992119,0.2906829767474161,2616.1467907267324,0.201369690236713,0.2923012228779886,2630.711005901891,0.2243378114398426,0.4934134987065455,4440.721488358914,1732.5102729892706,0.0528549672913139,0.0373383649115822,0.4779508319830452,4301.557487847383,0.3984375,0.0921826699139927,0.3948272636074421,20.92584497119444,0.2530991184776725,0
0.5163588090144717,4647.229281130256,0.2345317665488275,0.3769052253647624,3392.1470282828677,0.1933634205804429,0.1880442516108205,1692.398264497391,0.1662785987843587,0.5365354833509279,4828.819350158357,1956.9616785945584,0.0853908690319256,0.0601433380971506,0.3942332461750181,3548.099215575154,0.4072265625,0.1063460885782454,0.4137702799300313,30.205230434892268,0.1996795445645253,0
0.6202155122349358,5581.939610114406,0.1563317628055322,0.4744430433926334,4269.9873905337045,0.1144084498055025,0.5711644062696936,5140.4796564272665,0.2521449504836362,0.4882574228318727,4394.316805486837,1814.854756823025,0.0622529588225922,0.0451894600395679,0.2651006666826241,2385.9060001436164,0.4072265625,0.1396595788312824,0.4296815639831211,13.320128483476756,0.2257131403968587,0
0.5361057613776138,4824.951852398529,0.1563117446962822,0.5592050978329857,5032.845880496876,0.1799472713129236,0.4617945136011046,4156.150622409947,0.2806095176654989,0.4797686930942817,4317.918237848525,1828.8185258112649,0.0824729410067649,0.0551340687813589,0.2235336901377316,2011.8032112395767,0.3720703125,0.1486997661612344,0.3682518285799747,12.520562171719131,0.2086508834774704,0
0.6523795358457279,5871.4158226115305,0.2341832167145816,0.5169311607588633,4652.380446829744,0.224045530281256,0.4531779237217654,4078.601313495908,0.2730661850772084,0.5648153469106253,5083.338122195605,2119.566742495836,0.0903196056471371,0.0613890067851521,0.2259157309053853,2033.241578148464,0.3330078125,0.1472917942636601,0.3283304256033885,5.909947660860994,0.3007472904226828,0
0.4238859194380501,3814.973274942452,0.1856115860611457,0.5014206729835492,4512.786056851935,0.1819758016767234,0.4221368651267264,3799.231786140525,0.2576834681952468,0.5672762409953452,5105.486168958092,2129.862470338443,0.089925631922573,0.0599013684511651,0.2228337167979512,2005.503451181568,0.4462890625,0.1451060991330656,0.3686830728690002,11.060492186070007,0.3247351295822373,0
0.5734385486506116,5160.946937855501,0.2237053422622117,0.5028624421670356,4525.761979503314,0.2422145310890961,0.4907915912159521,4417.124320943574,0.2858711058661473,0.519465295595046,4675.1876603554165,1876.6087023473813,0.0721356688396916,0.0503193507218032,0.2174503114145703,1957.052802731134,0.37890625,0.1473991236771018,0.3272851365550042,10.145839233205132,0.2792288591799458,0
0.5653878110915148,5088.490299823629,0.1102905057219379,0.5231670880446264,4708.50379240163,0.1982881018060213,0.4281763692107893,3853.587322897115,0.2564004761085572,0.4475234702933549,4027.7112326402,1669.5996135044318,0.0626448086917439,0.0438543113093499,0.21509717292578,1935.8745563320183,0.412109375,0.1466583554717174,0.3001525381307044,13.206711677750995,0.2502011362792304,0
0.4579954910677718,4121.959419609947,0.2208353916916167,0.5585849856126903,5027.264870514225,0.2140757893318944,0.4789912765449404,4310.921488904455,0.2105782119625494,0.5588196843327027,5029.377158994318,2054.6075273013503,0.0785937870588039,0.0542966751828718,0.2234227613134361,2010.8048518209227,0.3779296875,0.1469443908287507,0.5509523630874044,15.42666616644732,0.2728665308550544,0
0.6136465603324966,5522.8190429924825,0.2099119358714097,0.4662568664453405,4196.311798008054,0.1848031637229908,0.4274415760580477,3846.974184522429,0.1805208604977329,0.5233966208714712,4710.5695878432425,1924.003099098394,0.0588134848132513,0.0423994006308725,0.2402399644860589,2162.159680374532,0.2841796875,0.1450163787974992,0.336956085094839,13.47824340379356,0.2497425648937565,0
0.5967030581183952,5370.327523065528,0.2153586608667836,0.4482896247089042,4034.60662238014,0.119793170892266,0.1756700634542818,1581.0305710885357,0.1213234646600969,0.5175963000451496,4658.366700406341,1904.6012453684127,0.08399963989727,0.0620500567482083,0.241007621292777,2169.068591634994,0.349609375,0.1493553843063001,0.3427306193150134,15.4228778691756,0.241843562048593,0
0.7715895269307973,6944.305742377179,0.1589164152418909,0.5502933122582021,4952.6398103238125,0.1120814632941637,0.2854540507744727,2569.08645697026,0.076283429027461,0.3947978164312688,3553.180347881425,1388.990782654172,0.0460227413026516,0.0362156996769334,0.2239408839413016,2015.4679554717072,0.279296875,0.1482303596322449,0.4162821617609272,15.818722146915231,0.2000369444421015,0
0.3888266922889456,3499.440230600516,0.1710228445312436,0.5196523482691358,4676.871134422234,0.1780363442228626,0.3908365210765991,3517.528689689388,0.1673252881075897,0.5716557427468626,5144.901684721769,2052.442497143424,0.0729592144398876,0.0545214899601749,0.2278412153946119,2050.570938551504,0.357421875,0.1512538907614556,0.4812691285273957,3.3688838996917703,0.3108697131190276,0
0.5291084327682449,4761.975894914211,0.2870947976504045,0.5854154466965349,5268.739020268803,0.1731329275410995,0.4863162418040871,4376.84617623679,0.1739828505526191,0.5597276167932351,5037.548551139128,2069.946348140365,0.082969963046614,0.057555973174597,0.2201781235249594,1981.6031117246328,0.3076171875,0.1526014848400079,0.4191671167514881,12.994180619296133,0.2797364310511347,0
0.5230430095288301,4707.387085759458,0.2021904214790103,0.4482710203676414,4034.439183308769,0.1807119225627063,0.4513295643584565,4061.966079226103,0.1697726626548814,0.4900180460361443,4410.1624143252975,1780.9970608029191,0.0637744395138818,0.0473426814670453,0.2262602809333164,2036.3425283998545,0.431640625,0.1508297492485239,0.2861727764727001,7.154319411817503,0.2726476654644441,0
0.6645781149258542,5981.203034332698,0.2594211757432554,0.4786300866798993,4307.670780119093,0.1604930285370069,0.46434644851991,4179.118036679191,0.18657812943593,0.4795699760880685,4316.129784792617,1735.3400360033393,0.0678552980832618,0.0508142851137983,0.2839322441982122,2555.390197783916,0.294921875,0.1555296146426725,0.4205741668740697,25.23445001244418,0.2362345932084592,0
0.5739383602003283,5165.4452418029705,0.2943370043218257,0.424857214066297,3823.714926596695,0.1977351660202592,0.3545967864467361,3191.3710780206343,0.2599751815138547,0.4072470743251353,3665.223668926207,1532.668969067962,0.0772989831876112,0.0604619554997072,0.2795499467538692,2515.949520784825,0.2890625,0.1526121777450866,0.3762673944867528,23.32857845817868,0.2143041745894154,0
0.5458616130524877,4912.754517472372,0.2007268085205504,0.4585208827096904,4126.687944387224,0.155793586235273,0.3052573279260854,2747.3159513347696,0.1879108596264139,0.4485157216976922,4036.641495279223,1609.5204791570409,0.0732627837370165,0.0555088459259619,0.2591096688425336,2331.9870195827943,0.4814453125,0.1504885244285619,0.3862330296928095,15.449321187712384,0.2540080926791201,0
0.5453591218604937,4908.232096744443,0.2059901956694072,0.4000512898252492,3600.461608427242,0.2025827473694286,0.4396077500396737,3956.469750357063,0.2473246261010322,0.5008250947009735,4507.4258523087565,1784.5872132317415,0.087827688429707,0.0692272783374767,0.2831393805492739,2548.254424943461,0.298828125,0.1448350828179617,0.3411543587695652,12.622711274473907,0.2470193177252769,0
0.3910500687267089,3519.4506185403625,0.2007851812112209,0.4588071497638394,4129.2643478745495,0.1763086402654346,0.4776813468322564,4299.1321214903055,0.2555915034913285,0.6051924150557596,5446.731735501821,2147.180399736428,0.086731512535072,0.0640539809014566,0.2499567374312281,2249.610636881059,0.3173828125,0.1573241133979938,0.426776568494705,30.30113636312405,0.247078044718774,0
0.5808650417430998,5227.785375687884,0.1756549254132044,0.4925342552964656,4432.808297668184,0.2094692641599711,0.4403096794217617,3962.78711479586,0.1964794085461781,0.5483577172642822,4935.219455378534,1976.2188417064044,0.0924794788825252,0.0691642201239175,0.2592675409767707,2333.4078687909355,0.5048828125,0.1547648905965963,0.3398440519903634,10.535165611701265,0.2355098639188227,0
0.4790821665340759,4311.739498806689,0.2438340245419189,0.4924639345546325,4432.175410991693,0.2005913120412861,0.4473545498690793,4026.190948821717,0.2776977606215649,0.4898841292848538,4408.957163563672,1701.8674651761985,0.0555945136967987,0.0448105934169972,0.2399749019761464,2159.774117785316,0.2919921875,0.1573962924802694,0.41562046978313,26.59971006612032,0.2539168836737718,0
0.4344653453540848,3910.188108186759,0.211135362539063,0.5564338925396051,5007.905032856448,0.1889424091850351,0.4757114624830611,4281.403162347552,0.2463333084072529,0.560014506451917,5040.130558067244,1949.9826744848235,0.0548753281506149,0.0465316793363225,0.2364967474532604,2128.47072707934,0.302734375,0.1425485091608299,0.3805331845810909,10.27439598368946,0.26753279580421,1
0.5804594960193317,5224.135464173985,0.0983413210164298,0.5526273222805481,4973.645900524922,0.1620346784708611,0.5066509837084298,4559.858853375867,0.2027599174667931,0.6387739077005582,5748.965169305006,2159.163075993258,0.0631578768042391,0.0483835644304995,0.2538012869663785,2284.211582697414,0.53125,0.140121943331702,0.4735703566138074,14.207110698414226,0.2644880393754351,1
0.5718275008311934,5146.447507480767,0.1804345942185724,0.6016616034162234,5414.954430746007,0.1610632004282205,0.5133371462700183,4620.0343164301785,0.175794582998516,0.491326571331481,4421.9391419833455,1680.167092200914,0.0657386448086931,0.0522476624129521,0.2215781902669927,1994.2037124029364,0.4423828125,0.1476478701372744,0.5025228803752938,23.116052497263517,0.2440014983100944,1
0.4708320776255708,4237.488698630129,0.1361066532106007,0.4860833329764862,4374.749996788361,0.0994702060993781,0.4837362722051889,4353.626449846712,0.1361242373140663,0.5058353285120105,4552.517956608098,1740.7421497607218,0.0480309648257898,0.0373318306983965,0.2136789432078389,1923.110488870548,0.486328125,0.1468335394213079,0.4633519341370815,19.460781233757427,0.2881289419325229,1
0.5546538139301074,4991.884325370956,0.2197464308934569,0.452546010072153,4072.914090649385,0.2087436586446388,0.5903129263922122,5312.8163375298855,0.2557328060190182,0.4663547793397602,4197.193014057838,1735.304845810556,0.0743840508515578,0.0565066914698943,0.3485065325912365,3136.5587933211323,0.3544921875,0.1062770643194106,0.3832515102051819,17.629569469438373,0.2018721481245371,0
0.4884645295360243,4396.180765824226,0.1552011390461952,0.534939729528073,4814.45756575264,0.2171452479413415,0.4358082668360211,3922.274401524187,0.2446921290943698,0.6548142066675486,5893.327860007926,2144.6091839631813,0.0305310793186021,0.0205459073623084,0.3321043149659833,2988.9388346938517,0.2998046875,0.1094479328769013,0.4412595615747232,5.736374300471402,0.3425100785673079,0
0.6180542958115627,5562.488662304029,0.1257836608825314,0.4332066394828157,3898.8597553453446,0.1937995139285924,0.4958261908958537,4462.435718062679,0.2465255767914808,0.4936824855411913,4443.142369870709,1778.710293516339,0.0663958463000783,0.0457201179500948,0.3376725294982964,3039.0527654846533,0.314453125,0.1089157164064356,0.2734475865563787,12.305141395037044,0.222634143626256,0
0.5546413055343302,4991.771749808959,0.1396313094774924,0.4081150539619297,3673.035485657378,0.2337130282398999,0.5261334715876449,4735.201244288804,0.1677678854068418,0.4906133078031265,4415.519770228148,1958.5871188607337,0.1042219852920691,0.0672207507678883,0.335657881015325,3020.9209291379248,0.365234375,0.1060673698714604,0.2504338758027569,11.770392162729571,0.2075405441407873,0
0.5240927676565315,4716.834908908783,0.1751460233487408,0.3772471677649165,3395.2245098842463,0.2022811271795321,0.5052936231192008,4547.642608072808,0.1990588119218008,0.5674709822472415,5107.238840225175,2112.462681004305,0.0806783246452016,0.0537409732046396,0.3394292300398372,3054.8630703585163,0.3212890625,0.1057260855068668,0.2088655290631115,12.531931743786693,0.17480538309659,0
0.5552240818500981,4997.016736650871,0.1254087645083847,0.3561093029767149,3204.9837267904327,0.1701248761642287,0.5107504566024007,4596.754109421604,0.1389100224335946,0.5403814953464783,4863.433458118327,2098.7524601846844,0.097643643451307,0.0631243978203837,0.3506154681473037,3155.5392133257174,0.2880859375,0.1034148352561437,0.2724402661919896,12.804692511023507,0.2546481146700457,0
0.5766159661996887,5189.543695797184,0.1553200972410289,0.4198597927353793,3778.7381346184193,0.2149527417633346,0.4761525964761752,4285.373368285573,0.1882941290694165,0.4980623624720034,4482.561262248008,1770.2324557146444,0.0523742004499317,0.039598034712771,0.3486023116730144,3137.420805057123,0.435546875,0.1030364146843909,0.3205795412615763,11.861443026678328,0.3091495193745985,0
0.6421195225428007,5779.075702885208,0.1798535381819364,0.3878867709919514,3490.980938927557,0.2026175267039776,0.4539108473892312,4085.197626503096,0.1599882414816131,0.5121435625978121,4609.292063380314,1879.796196660064,0.0843858706002413,0.0568147330581848,0.3274706874006056,2947.2361866054425,0.4912109375,0.1101638699608038,0.3636842613116657,14.547370452466629,0.2523482956731981,0
0.5482609602746891,4934.348642472204,0.2221960384148509,0.5274307817784744,4746.877036006266,0.1482611180259548,0.4597887344089084,4138.098609680169,0.1554473272791527,0.5720204931650028,5148.184438485037,2048.9948972415204,0.0718972153372447,0.0485774173376996,0.3383761723274891,3045.385550947397,0.32421875,0.1060019668161611,0.4746250814322301,17.086502931560275,0.199790320679534,0
0.5856105965289413,5270.495368760464,0.1570319956620804,0.3992980840670135,3593.6827566031197,0.2367862633839906,0.4661357334901777,4195.221601411595,0.1263513459520314,0.5479661085173051,4931.694976655745,2142.816199128111,0.1107895686371067,0.0693729561124244,0.3376405836242932,3038.765252618649,0.375,0.107809325396888,0.3524744576597363,19.3860951712855,0.2367443084797833,0
0.5251258632471177,4726.132769224055,0.1874946268480014,0.5415144289897132,4873.629860907407,0.2122062445445078,0.4789615590958998,4310.654031863114,0.1769632153201819,0.4983036063317861,4484.732456986094,1920.4161293667364,0.0967723265424397,0.067850793713998,0.3557006796836073,3201.3061171524573,0.4609375,0.1041176280616225,0.3101087136390545,12.714457259201234,0.2266639520619796,0
0.599875259327771,5398.877333949938,0.1382914708804007,0.4207464635048947,3786.71817154405,0.1878162481375353,0.4973668155846138,4476.301340261529,0.1384058126618846,0.5224621280539911,4702.159152485904,1997.825040162926,0.1017642638276759,0.0663817385600265,0.336348342595304,3027.135083357741,0.3115234375,0.1105328380662385,0.5491923365986104,19.770924117549978,0.2177555073857644,0
0.638229138460702,5744.062246146345,0.1399382622620453,0.5084012097665586,4575.610887899037,0.2007866896811474,0.3897611035909643,3507.849932318681,0.127360366251888,0.4013429139495015,3612.0862255455104,1404.0688240414152,0.0447225457573526,0.0325071866236921,0.337875966322037,3040.883696898334,0.3330078125,0.104567272185108,0.3202284657503307,10.24731090401058,0.2776217900730832,0
0.3555609739541533,3200.048765587381,0.1825552766501287,0.5479633134816333,4931.669821334675,0.0802434093903894,0.4171060151501143,3753.9541363510216,0.1859433149522698,0.6112556216686486,5501.300595017839,2076.6149942705674,0.0593684033734183,0.0412348199015822,0.3589742363854808,3230.7681274693227,0.2919921875,0.1021409275653937,0.3625034994555644,27.55026595862289,0.2248757170456119,1
0.5804446155084626,5224.001539576136,0.1236274557610227,0.5224298372511677,4701.868535260499,0.1875703320941126,0.4259580332650125,3833.622299385108,0.1719498265559398,0.6838108248980379,6154.297424082345,2326.482133661696,0.0805383814865012,0.0505224942442226,0.34777895180906,3130.010566281547,0.353515625,0.1009595259247343,0.2069928506631344,10.763628234482985,0.2281379994937687,1
0.6144610253022296,5530.149227720062,0.0998707679303715,0.4019370134555425,3617.433121099881,0.2115304391660952,0.4824538755820254,4342.084880238241,0.2142072778550768,0.6772440112065448,6095.196100858924,2299.447965907289,0.0809765710476065,0.0514798927014451,0.3375608796007909,3038.0479164071216,0.318359375,0.1020476591074752,0.4046288554056495,26.705504456772854,0.2960170955302357,1
0.5173666184664623,4656.29956619817,0.1447860483885575,0.3317174850015639,2985.457365014073,0.1077227523063431,0.450132786528312,4051.1950787548167,0.1740857864339718,0.5742451301510679,5168.206171359598,1968.141957072001,0.0754708876475332,0.0496147494414824,0.3357240244650721,3021.516220185657,0.3408203125,0.1023696032720707,0.333873929146884,22.703427181988104,0.2704248104113647,1
0.5396118430945873,4856.5065878512905,0.2024993535580406,0.5460592840262143,4914.533556235918,0.1547799727132034,0.482619585092197,4343.576265829769,0.2415229328677905,0.5332985735069921,4799.6871615629325,1886.961394211884,0.0763389906628486,0.0554226733199298,0.3732407908306303,3359.167117475681,0.3017578125,0.1266208988614101,0.4665439419236833,26.126460747726263,0.241371610268133,0
0.5056857549711693,4551.171794740509,0.1698740582255357,0.6957786342439289,6262.007708195361,0.1453780258155448,0.4720825009808701,4248.742508827832,0.2362973204281578,0.5267997600364087,4741.197840327666,1930.6724577580944,0.071143660670464,0.0538174992067372,0.3832643513704506,3449.3791623340626,0.4482421875,0.1144337131333514,0.4598575127534628,21.153445586659284,0.2456681416350501,0
0.5424969467521997,4882.4725207697775,0.1320131635447469,0.5602775450948678,5042.497905853815,0.1494435240743942,0.4148575851447256,3733.71826630254,0.2426472317316056,0.4418895340331888,3977.005806298721,1591.112001692388,0.0573990212583806,0.0445563629583396,0.3982253272095978,3584.027944886388,0.3896484375,0.109532916455086,0.4785682145210165,22.014137867966756,0.2375885211618468,0
0.5785453789577499,5206.908410619767,0.1942401511096848,0.5723712551687663,5151.3412965189,0.161003441703906,0.4852404831706182,4367.164348535554,0.1804200306543489,0.5127335096416331,4614.601586774689,1889.7573325693093,0.0726058995337487,0.0593640325999065,0.3855158764335917,3469.64288790234,0.4814453125,0.1062945159085705,0.5036122275634646,19.64087687497512,0.3321254452155644,0
0.5281806526037197,4753.625873433479,0.1613147141136829,0.5156905893988243,4641.215304589417,0.1556571400045004,0.4393035172976612,3953.731655678948,0.243174600292217,0.5569475053796908,5012.527548417237,1970.5772075852049,0.0663702876420963,0.0425927388164339,0.3796325775792449,3416.693198213224,0.2626953125,0.1300066797453926,0.5976133522750613,48.406681534279954,0.2327554822690957,0
0.6227436752599003,5604.693077339091,0.1406046096327523,0.4803758482762979,4323.382634486694,0.1052829575457691,0.4039352731681121,3635.417458513016,0.2049460479289463,0.608659558103589,5477.9360229323165,2191.0112995852064,0.0888158364007788,0.0590998723799534,0.4066037607496361,3659.4338467467296,0.2978515625,0.114474135487498,0.4090158497801026,28.222093634827075,0.2108585472793031,0
0.5789472998079817,5210.5256982718265,0.1340840349261711,0.5113074588950838,4601.76713005573,0.1246518670091824,0.3943260170679369,3548.934153611435,0.1737971630395667,0.6195994888589372,5576.395399730451,2183.73034616022,0.0860867149626728,0.0546042645237809,0.3768166839182712,3391.35015526444,0.3935546875,0.118895803515622,0.3765148285538097,36.52193836971955,0.2231760032287277,0
0.6463122079720506,5816.809871748437,0.1859691325934308,0.4675710966628522,4208.139869965678,0.1034846848029914,0.297502948191913,2677.526533727217,0.1683084916697921,0.407379405509905,3666.414649589143,1424.5277391291495,0.0369736001201419,0.0309781313679859,0.3891708434199314,3502.537590779389,0.2685546875,0.1149577353156553,0.4329960302211972,34.20668638747457,0.2046865845183596,0
0.5460041228686277,4914.037105817658,0.1468219829107983,0.4809966028519742,4328.969425667782,0.0948397493548212,0.477512645057609,4297.613805518501,0.2582136690581979,0.4911254903158139,4420.1294128423215,1728.412149952033,0.0568389509402581,0.0424141030957866,0.2841101386675252,2556.9912480077314,0.478515625,0.1101281795063829,0.5044905433275727,29.26045151299923,0.2044253679563768,0
0.6022853716548406,5420.568344893565,0.1555432035841818,0.3021836664862716,2719.6529983764435,0.0918378814863972,0.4395874999198701,3956.287499278828,0.2485508448644659,0.5178168670716804,4660.351803645114,1865.1879405738573,0.0739926154326653,0.05002357371735,0.3159868315535321,2843.881483981786,0.3017578125,0.1048736473592774,0.2280850408051887,15.737867815558015,0.2188012680163825,0
0.483319060548742,4349.871544938679,0.1574676226516211,0.4162095002407802,3745.885502167029,0.0888354694622917,0.462415435296128,4161.738917665145,0.199515430746258,0.5601166107427659,5041.049496684883,2101.8283763911427,0.0930246425890802,0.0606432555804598,0.2643815477355949,2379.43392962036,0.3466796875,0.1158107849497465,0.1049254947368166,10.7024004631553,0.146452998073409,0
0.4786790755919855,4308.111680327861,0.2270796135198058,0.5405750284357113,4865.175255921381,0.1084718306896,0.3867922817327073,3481.1305355943737,0.167792634203951,0.5684751897319855,5116.276707587889,2048.399122145216,0.0932276669230975,0.0631955757571361,0.3026781809011292,2724.10362811016,0.333984375,0.1081188683076826,0.3273890084099699,26.191120672797588,0.2339266485724561,0
0.5097633579064871,4587.870221158385,0.208462881834848,0.2480001449121871,2232.0013042096743,0.1040396610542777,0.3965662011863694,3569.095810677313,0.1453187484795612,0.4163607739442845,3747.246965498569,1488.1021228611826,0.0417981456403825,0.0307413300213304,0.3304082238276032,2973.674014448435,0.4423828125,0.1041289134893316,0.3222216527415161,21.911072386423093,0.2263070106372665,0
0.5380743418733743,4842.66907686037,0.1703108082686024,0.4816733933994336,4335.060540594896,0.1567273599420763,0.4758038283898154,4282.2344555083255,0.1852618921939084,0.5184671456804096,4666.20431112369,1969.3557227116407,0.0840661182150885,0.055239849217816,0.2973876271142871,2676.4886440285777,0.4345703125,0.1067620259276236,0.1854517826336339,14.836142610690713,0.181584804502966,0
0.6935953873092324,6242.358485783084,0.1527257514972425,0.5970111435061776,5373.100291555573,0.1858589997607392,0.5965327094835868,5368.7943853522775,0.1232537615217504,0.5301418144218429,4771.276329796584,1950.024787188377,0.0793460956456752,0.0542902440377192,0.2823725826488285,2541.3532438394504,0.283203125,0.1083661181410493,0.273646125951441,20.797105572309512,0.1628826451118206,0
0.5743182231746914,5168.864008572226,0.1668011300547582,0.4405958865049502,3965.362978544564,0.2262899051128279,0.5162142988463858,4645.928689617475,0.2299159594433308,0.5217278570905689,4695.550713815116,1901.0922966416972,0.0745389042309608,0.0502212664555324,0.2801208458145613,2521.087612331057,0.4150390625,0.1091756321027686,0.2367923543959184,12.313202428587756,0.2348215471087383,0
0.5223649383931257,4701.284445538117,0.2664840284462501,0.5703248489796907,5132.923640817203,0.1410388890068135,0.3892389969715247,3503.1509727437224,0.172445382411873,0.5727372259429938,5154.635033486959,2067.325347386399,0.0820188588207696,0.0576657392656334,0.2880418788202374,2592.376909382128,0.544921875,0.1110978068359918,0.3072329984437154,27.036503863046946,0.1978107041679794,0
0.5814551823090441,5233.096640781399,0.1483299410827747,0.5859916078521298,5273.924470669163,0.1737176040524519,0.504272717893851,4538.454461044646,0.1871388513770169,0.5987730302746613,5388.9572724719455,2088.8060672853053,0.0796659969931306,0.0556915886133905,0.2893548955278345,2604.1940597505104,0.4599609375,0.1081595892682915,0.3510275092215717,30.188365793055173,0.2085304495352452,0
0.5662747506814678,5096.472756133222,0.1960905856795544,0.5095701230406725,4586.1311073660445,0.2163643212967412,0.469429608212425,4224.866473911804,0.1355310738861293,0.5288150407608566,4759.335366847708,1847.3066738616485,0.0739962344990227,0.0510624646623548,0.2833152100759378,2549.8368906834576,0.3623046875,0.1087600614841968,0.3330489888479352,21.648184275115767,0.2342618016695326,0
0.6095232924060335,5485.709631654321,0.2067571627949282,0.4735088275062949,4261.579447556649,0.2180482819113427,0.3775754297494612,3398.178867745165,0.1644645166648561,0.4707796440478352,4237.016796430525,1651.1126086808126,0.051662570539982,0.0378599360003695,0.2816568703949814,2534.91183355484,0.5224609375,0.1081780183345457,0.355460595878911,22.7494781362503,0.1603554699224205,0
0.5545518484770605,4990.966636293536,0.1663028042192582,0.4990186521546189,4491.167869391577,0.1035932042795146,0.4067669355218709,3660.90241969683,0.1728972395798672,0.5667451928768038,5100.706735891245,1863.935412168676,0.0287201457623984,0.0243551461928577,0.3287096827694534,2958.387144925084,0.2255859375,0.1039908835313529,0.3448338472792969,21.37969853131641,0.2558943960408106,0
0.6638959612263617,5975.063651037212,0.2048484274201812,0.3579521925093956,3221.569732584549,0.1510170630735384,0.4214319945947617,3792.8879513528527,0.2451223831781265,0.5770048214587178,5193.043393128459,1957.0373560793537,0.0507258823513064,0.0380964091399536,0.3103145801850874,2792.831221665773,0.31640625,0.1073095732769818,0.4544457134429035,20.45005710493066,0.2620531933575351,1
0.5968523639215952,5371.671275294366,0.197759879608025,0.4919259677637336,4427.333709873615,0.1371564354628924,0.4245250031426409,3820.725028283752,0.1470528668225262,0.4376885975265237,3939.197377738713,1465.960310461105,0.0452456468516371,0.0344155480753998,0.2658380077810254,2392.5420700292293,0.4873046875,0.1108862897033746,0.3344315854151442,9.69851597703918,0.2459257007603092,1
0.5756608911253378,5180.9480201280485,0.1508596274355926,0.4655845085737796,4190.260577164026,0.194288077126061,0.4052085249516542,3646.876724564885,0.1711642945207232,0.5954744263717123,5359.26983734541,2073.6483656402725,0.0874532367843675,0.0605783902072679,0.2594079864231419,2334.6718778082723,0.41015625,0.113848684707738,0.3577088411463489,12.162100598975863,0.193046275468514,1
0.6414502242308968,5773.052018078075,0.1508047354399554,0.5159338968223608,4643.405071401255,0.1902134654780792,0.4719657523495558,4247.691771145987,0.2022110697791905,0.5448980672555811,4904.082605300256,1917.4844855414024,0.0807650357511466,0.055329108421926,0.2721109631667051,2448.998668500339,0.36328125,0.114472528911308,0.3989260697413812,12.765634231724198,0.2497361735363189,1
0.6694102842779878,6024.692558501881,0.1760440146257872,0.536046062101568,4824.4145589141135,0.1191947507186072,0.3512660165859685,3161.3941492737144,0.1394975644764847,0.5829984210863492,5246.98578977714,2012.8836683118643,0.0704343004243985,0.0500148794529314,0.2794154301131745,2514.7388710185705,0.4140625,0.1121334101128167,0.3459976983108999,14.185905630746896,0.252641840842086,1
0.6030360246428262,5427.3242217854295,0.1482689552170845,0.3908528381384316,3517.675543245881,0.173765110857816,0.4809445919804701,4328.501327824214,0.2522717573949093,0.5256869045707105,4731.1821411364,1853.508602040256,0.0797329088718714,0.0569600274221234,0.4643361764336427,4179.025587902799,0.4189453125,0.1000342012842501,0.4577613380133073,28.83896429483837,0.2118319177825855,0
0.6014846564719918,5413.361908247929,0.1579500357063065,0.3610905379871437,3249.8148418843016,0.2036818708542812,0.2760154434889611,2484.13899140064,0.154618940789371,0.5910066846608477,5319.060161947616,1989.0317839940933,0.0589530217458632,0.044117378957709,0.4772590098174634,4295.331088357159,0.3583984375,0.1087193614558906,0.4296514206027435,33.08315938641125,0.1892475532999914,0
0.6191343328166375,5572.2089953497325,0.1191217286889485,0.3435729569130797,3092.156612217708,0.1770172726001561,0.4014107502978936,3612.696752681051,0.1781239007177526,0.478738212547068,4308.6439129236205,1655.4744838569325,0.0619869125403388,0.047391755435521,0.4750177472399802,4275.159725159832,0.51171875,0.1030077583722027,0.3891257150353513,23.347542902121088,0.2327719156320785,0
0.6048861018572953,5443.974916715668,0.1312521485690519,0.4390697802636422,3951.6280223727913,0.1481938271102455,0.4015502167337941,3613.9519506041424,0.201519453911698,0.5219767235070195,4697.790511563194,1751.6371782419142,0.0512390576583479,0.0417297706208827,0.4782505853958245,4304.255268562438,0.5478515625,0.0955561826565748,0.3663785011130742,23.081845570123683,0.2325175531525381,0
0.5893975557701103,5304.5780019309805,0.135384692294169,0.3973956164539906,3576.5605480859035,0.1131539221175168,0.2986144448725371,2687.5300038528417,0.2607376358129521,0.6728014620465389,6055.213158418847,2290.59535621193,0.047365224421507,0.0333317602667218,0.4638721134322174,4174.849020889948,0.40625,0.1060271325034855,0.4053050810647279,25.128915026013125,0.2356165785395491,0
0.6269253564636621,5642.3282081729285,0.1393608219273661,0.4293605551308032,3864.244996177227,0.1265319661176718,0.3641654190696928,3277.488771627219,0.2129716334964844,0.4717892251770906,4246.10302659382,1798.9350757083512,0.0778542496240139,0.0527699773485702,0.2956444506626745,2660.800055964072,0.3427734375,0.1288859588432824,0.4820846988138245,29.4071666276433,0.2412752017107621,0
0.5486436264859833,4937.79263837384,0.1238319852054647,0.586738992216407,5280.650929947672,0.1197181140579257,0.2622381856083614,2360.143670475249,0.2331261587633151,0.5627306973805263,5064.576276424719,2211.1798181940885,0.1134904466218695,0.069402547389742,0.4723050531927505,4250.745478734747,0.4013671875,0.1091475692440504,0.3718541798378581,25.286084228974357,0.1977121400027342,0
0.623302047687077,5609.7184291837,0.1827317823245972,0.4520641802121823,4068.577621909639,0.2313842600597604,0.4302743560310393,3872.4692042793463,0.2241437895328943,0.5364074406923851,4827.666966231464,1980.6585657360984,0.0800483524927861,0.053989693635077,0.4006529593586814,3605.876634228138,0.3037109375,0.0935976704443172,0.3727010911267621,11.553733824929626,0.2143793516203706,0
0.5802210865683695,5221.98977911533,0.2490449572524848,0.5683969344378967,5115.572409941056,0.1959051261010344,0.4509020382374991,4058.11834413749,0.2438620019148393,0.5271523248047493,4744.370923242736,1983.978477970193,0.0872138964544194,0.0551268796308613,0.3892659477780694,3503.3935300026305,0.3642578125,0.0914247682278036,0.4687979661088339,11.251151186612011,0.2560025287856708,0
0.4921320234976581,4429.188211478919,0.1915987568450228,0.3903258547939652,3512.932693145689,0.1573889983476889,0.5091665448844575,4582.498903960118,0.1782811952745317,0.5856421410269905,5270.779269242955,2179.8988083954728,0.1000858239861013,0.0631550109968299,0.4378321482780978,3940.489334502888,0.3583984375,0.0891198022617276,0.2927627451152242,11.12498431437852,0.2533897501722592,0
0.6364557771166681,5728.101994049983,0.1557759318849331,0.4167103857210441,3750.3934714894,0.2284031409774932,0.4601552227095296,4141.3970043857735,0.2361323657329701,0.5708213156730608,5137.391841057539,2098.512360325756,0.092641719889701,0.0605815375744377,0.3876540429534544,3488.88638658108,0.3955078125,0.0911072650701708,0.4084612123644128,6.943840610195018,0.2660902495562964,0
0.6079728481588634,5471.755633429761,0.1890620396128683,0.4697440033484437,4227.696030135996,0.1754684832942048,0.47881810665472,4309.362959892494,0.18531623021914,0.5571276305895954,5014.148675306356,2039.475056167896,0.094042837794815,0.0646422110983653,0.3816275435602417,3434.647892042157,0.4658203125,0.0926714980061109,0.498468653210409,19.44027747520595,0.2343981389441564,0
0.5954997140942055,5359.497426847865,0.3316161765694711,0.5038777787467078,4534.900008720357,0.1818115506354284,0.518420136776247,4665.781230986239,0.0785104614438308,0.6105327777634074,5494.794999870628,2158.2230907530475,0.0817211196382341,0.0589410058693799,0.3925298663802722,3532.768797422452,0.4619140625,0.0908666915682461,0.3242812905095721,8.107032262739299,0.2481024745243139,0
0.5775644317169403,5198.079885452475,0.1474506844974159,0.3553563236061328,3198.2069124552004,0.1406178204897581,0.3605360269099729,3244.824242189759,0.146293107035162,0.6145131402365649,5530.618262129077,2180.1418845672947,0.0923490746002461,0.0654393986087541,0.3645178859363603,3280.660973427239,0.5908203125,0.0921391830528758,0.2930066525665578,9.962226187262964,0.2133397613451081,0
0.6919033534013902,6227.130180612508,0.2057333585263215,0.5051369889747884,4546.232900773089,0.1824752266502992,0.5277369066898313,4749.632160208496,0.1467110443642925,0.5707156861662309,5136.441175496087,2147.9557719408663,0.1009516450081319,0.0635966733788027,0.3720422632292579,3348.380369063322,0.4697265625,0.0977279135192869,0.3235130360000574,17.469703944003097,0.1850314588297708,0
0.4575979174422671,4118.381256980402,0.2350425027885256,0.4948854397935618,4453.968958142026,0.1498188982796118,0.470953032842723,4238.577295584511,0.1429745395463939,0.568453002741834,5116.077024676508,2037.016668757481,0.0755456597878045,0.0530562211222118,0.364821140727197,3283.3902665447554,0.3486328125,0.0949180282700193,0.3456482123423661,17.62805882946068,0.2209573586158428,0
0.6091637702753631,5482.4739324782895,0.1500813935891039,0.3936323715589316,3542.691344030384,0.1506315794870858,0.5994898926652588,5395.409033987312,0.1097932898522354,0.5545059225141726,4990.553302627545,2033.063733570892,0.0860397806155713,0.059169478873962,0.3738485354350369,3364.6368189153272,0.3896484375,0.0957123655723568,0.355840236868168,12.098568053517711,0.2275855599109392,0
0.5256740971105154,4731.06687399465,0.1763991392000417,0.5327312263264309,4794.5810369378605,0.1659195483090206,0.4742463301569557,4268.216971412609,0.2293046282117493,0.5757409569825279,5181.668612842752,2056.08427091171,0.0845112952495337,0.0587430642931566,0.3508638736635164,3157.774862971645,0.384765625,0.0988885699897196,0.2899413170729901,16.816596390233425,0.2240520684439138,0
0.457881733881212,4120.935604930912,0.1849712185019449,0.4204150658429143,3783.735592586239,0.2512134589904447,0.4732244913252876,4259.020421927575,0.1709996142189198,0.6079501508225352,5471.551357402815,2121.1079692700464,0.090398238531503,0.0609076252817674,0.3387001305262821,3048.301174736534,0.525390625,0.0992273179216846,0.4181435971411094,25.50675942560769,0.2433894964127886,0
0.56742266330215,5106.803969719352,0.2174473148071496,0.4210805356231626,3789.724820608457,0.1603025645896494,0.4943267568850008,4448.940811965014,0.2846627977814899,0.5672613505638557,5105.352155074707,1956.578455117727,0.0361651955600124,0.0251318744754082,0.3867757027415593,3480.981324674028,0.4853515625,0.0953035067566022,0.3658550958177921,17.92689969507182,0.2230029114744154,0
0.5874798571675448,5287.3187145078855,0.1999984474650842,0.3108346485932087,2797.5118373388823,0.2046215872250618,0.4189684536639197,3770.716082975287,0.2687870920443343,0.6293934055237045,5664.540649713358,2270.2541917042968,0.0931853983644255,0.0586072875071736,0.3650453905050857,3285.408514545769,0.5908203125,0.1017681361506737,0.4043336796620522,26.281689178033385,0.2104618078718381,0
0.5539578675780726,4985.620808202649,0.1326596441589675,0.341685606499724,3075.1704584975078,0.1502445022406565,0.5806174625295807,5225.557162766208,0.1634356341019478,0.5982265506415443,5384.038955773907,2095.2783469555816,0.0783469126564351,0.0512742543116689,0.3693127599051077,3323.814839145968,0.41015625,0.0962724010485859,0.3325079022329353,22.943045254072548,0.2088110083152589,0
0.6929940916269969,6236.946824642968,0.166156659526694,0.307875068609278,2770.8756174835107,0.1712876350121201,0.4622991092774649,4160.691983497189,0.2586978444339992,0.5197909367217058,4678.118430495344,1845.1927782631888,0.0760512920543977,0.0536297448514423,0.3735674316527592,3362.106884874847,0.31640625,0.0868885345189912,0.4469884285335112,33.07714371147983,0.2200006101910122,0
0.6447825087517882,5803.042578766102,0.1535974974259021,0.5783213570921543,5204.892213829393,0.1603032737472403,0.5118682698664886,4606.814428798402,0.1703130134046191,0.5727215853196632,5154.4942678769785,2008.235519633747,0.0832307507268997,0.0576279972566721,0.3461480206755157,3115.33218607964,0.333984375,0.0916587974772469,0.5231549970826848,29.296679836630343,0.2359696995497077,0
0.6060978779241598,5454.880901317437,0.1378416015848595,0.3679293712307726,3311.3643410769537,0.1822925672138977,0.4955387151925713,4459.848436733143,0.2028921294730906,0.5878467541094027,5290.62078698464,2027.7364717802625,0.0813545477282184,0.0581901875289282,0.3537679520821141,3183.911568739021,0.3271484375,0.0945889301073111,0.2962502879587861,15.40501497385688,0.2229496429860429,0
0.5701324757134183,5131.192281420751,0.1573736827660606,0.4871553062644529,4384.397756380057,0.1652432321841668,0.3329630008465946,2996.6670076193645,0.1820767373064576,0.6074275930216708,5466.848337195052,2084.301907068772,0.0877384878044595,0.0624403259301855,0.3511150723010402,3160.035650709369,0.5478515625,0.0947564974088112,0.3471613940042844,16.31658551820137,0.2105178161158713,0
0.6040095954585538,5436.0863591269845,0.1649005162295199,0.4735359521589642,4261.823569430675,0.147389862484856,0.4952031020568879,4456.8279185119845,0.195072757679166,0.478724722566679,4308.522503100094,1668.2176133188525,0.0629387517637975,0.0457818918235634,0.3631827756022912,3268.644980420634,0.3515625,0.0909119658840855,0.525294060452772,36.24529017124127,0.2320070033561725,0
0.5936323884829445,5342.691496346501,0.1606846233718427,0.5604685232287064,5044.216709058343,0.2155947690272188,0.3077585300159292,2769.826770143355,0.19799162537708,0.6172418940314581,5555.1770462831055,2254.667666440998,0.0812719983808296,0.0523282609352769,0.4008897943376533,3608.0081490388775,0.4462890625,0.0980715273265686,0.3892110515076936,3.892110515076936,0.354312904563405,1
0.5073690076232882,4566.321068609585,0.1785598539729451,0.4762241554844678,4286.017399360225,0.2347586730405451,0.5021422456342854,4519.280210708575,0.2576191812590921,0.5812829440378027,5231.546496340229,2123.9279061474813,0.087712645270991,0.0557351256597224,0.3917186978170484,3525.468280353436,0.564453125,0.0974308449285269,0.5,1.0,0.5,1
0.5804795864982445,5224.316278484219,0.1434220085547875,0.486543278127403,4378.889503146651,0.2282655065236279,0.4315015366998626,3883.513830298756,0.2342224426544121,0.5587183993239339,5028.4655939154245,2058.768120194254,0.0955669194572085,0.0616466735143287,0.3892967473177233,3503.6707258595093,0.3720703125,0.0971852737741944,0.5,1.5,0.4082482904638629,1
0.6107528604348262,5496.775743913428,0.1261102934851953,0.5246418676438791,4721.776808794925,0.2192910314194818,0.4012617583678445,3611.3558253106016,0.196426151114013,0.5617641028367457,5055.876925530746,2071.4070038458663,0.0953044196431344,0.0623233758396405,0.3969199565083045,3572.279608574756,0.375,0.0996518033999595,0.5000000000000001,1.5000000000000002,0.4082482904638629,1
0.4844527660891781,4360.07489480261,0.2217340641820858,0.5193376335299629,4674.0387017696585,0.1455211139683441,0.4842727260447754,4358.454534402995,0.1089807717390142,0.5537760319040697,4983.984287136632,2098.625181611681,0.1130360322145794,0.0718415463208859,0.4460282351762692,4014.254116586415,0.302734375,0.0990842443502837,0.3833671883753109,15.718054723387745,0.2087896330406261,0
0.5472055038659517,4924.849534793591,0.1919748041784116,0.4491732643457377,4042.559379111646,0.2393044328555745,0.5048876581573315,4543.988923415979,0.0999205354549009,0.5675529881143977,5107.976893029574,2115.909642472301,0.1098999930377576,0.0653887735300848,0.4518613174736474,4066.751857262848,0.423828125,0.1107298073887529,0.4843760784633125,4.843760784633125,0.2998905857371704,0
0.5646691766694003,5082.022590024598,0.1661776584356473,0.4229164880382835,3806.248392344548,0.2000358057766952,0.3943833209225392,3549.449888302845,0.0965331581164474,0.5752172335596172,5176.95510203658,2112.120207627432,0.0970475504229235,0.0607982984194119,0.3969992744201421,3572.9934697812946,0.3935546875,0.1063879964950228,0.3572519767889633,14.290079071558536,0.1877630961060231,0
0.5134405748007485,4620.96517320675,0.1991135091941534,0.4785581885552888,4307.023696997595,0.1249272329547363,0.4584228278505185,4125.805450654661,0.1001999594951034,0.5215699675554146,4694.129707998724,1943.499758783974,0.0963312302149732,0.0610140807229592,0.4183014415871925,3764.712974284731,0.4248046875,0.1069467725339441,0.4103803339380084,17.235974025396352,0.2166423101186358,0
0.6378621863610261,5740.759677249215,0.1942644315589032,0.5104081323791032,4593.673191411935,0.1634993073212407,0.496778515440599,4471.0066389653975,0.087679987017079,0.4912809798519866,4421.52881866788,1763.2188858896225,0.0710135665914275,0.0475876877698897,0.4432961379582286,3989.665241624063,0.3330078125,0.1042349938638105,0.469612164868087,19.723710924459656,0.2248698034854414,0
0.5852078173138183,5266.870355824358,0.1603684548116553,0.4813146866637895,4331.832179974109,0.1518868012194205,0.5660040154488106,5094.036139039295,0.0675752431480138,0.5181471530168403,4663.324377151573,1850.6348880117623,0.0664686890498732,0.0467957087082862,0.4211425060618945,3790.282554557045,0.4375,0.087534903481355,0.5414166582061145,14.618249771565091,0.2020972294016922,0
0.5224952082509355,4702.456874258422,0.2084600809385159,0.4907100656455495,4416.3905908099405,0.1679042364962898,0.5265674724607153,4739.107252146428,0.1060391058396041,0.5836682466974012,5253.014220276626,2078.296598698785,0.0809886142609933,0.0539563906019874,0.4042748670742465,3638.473803668216,0.2705078125,0.0966070167723642,0.5136635080813379,20.546540323253517,0.2542224895106321,0
0.5483485484088043,4935.136935679249,0.1751098960687681,0.5520854131700056,4968.7687185300765,0.1484259048000146,0.3700852724005436,3330.7674516048905,0.0946033735717815,0.5927839178603235,5335.055260742946,2026.144467394904,0.0491689779056813,0.0351181921159203,0.3319404709084165,2987.464238175761,0.40234375,0.0961561336067994,0.3861849457429381,18.150692449918093,0.2184235817552281,0
0.5602335365945128,5042.101829350633,0.1029968059988637,0.4393966329214211,3954.56969629279,0.174043674022884,0.4008935355851108,3608.0418202659816,0.0993598005372932,0.5402202910300662,4861.982619270595,1802.9385082054623,0.0431943695179599,0.0343175441023646,0.3811002159606013,3429.9019436454228,0.3193359375,0.0949250881981207,0.3582994367890221,18.273271276240123,0.2213576659375216,0
0.6189217493420569,5570.295744078499,0.1055280331597253,0.4756081644589442,4280.473480130508,0.1933811649593922,0.4869844261541831,4382.859835387602,0.0778536161225458,0.5614392507929112,5052.953257136198,1859.2509034967925,0.0411996387434431,0.0310713100502564,0.4111419506135863,3700.277555522274,0.326171875,0.092940335820809,0.3802100440906015,7.60420088181203,0.2713551548785875,0
0.5837965803037737,5254.16922273395,0.1641216021653272,0.5030530094819409,4527.477085337459,0.1503813202631718,0.4615204358169003,4153.683922352102,0.0910372133663786,0.5760149888188376,5184.134899369529,2001.0516058746637,0.0878767747834504,0.0577239434976869,0.4532642502761635,4079.378252485487,0.3037109375,0.1027892958067364,0.4795763970264577,18.703479484031845,0.2736393163580682,0
0.5829653531177359,5246.688178059613,0.0989271691253348,0.4772112401627213,4294.901161464501,0.170696294032266,0.3173892389765577,2856.5031507890303,0.0956558402927372,0.4905209301885478,4414.688371696931,1710.660987920041,0.0623234627451556,0.0431951184634064,0.471747871802484,4245.730846222338,0.49609375,0.0809694458687077,0.3854094392545376,22.739156916017727,0.2037957654193992,0
0.452955464272235,4076.599178450113,0.150012212417424,0.4993260170749272,4493.934153674351,0.2173154826007624,0.4493063375872247,4043.757038285021,0.1087012050798259,0.5136700152173377,4623.03013695604,1844.2033086167808,0.072933680498703,0.0511522679407244,0.3952843841175193,3557.559457057673,0.3076171875,0.1003861755353112,0.372295299059921,10.424268373677789,0.2369680599167329,0
0.5124235982488634,4611.812384239792,0.1616128902849092,0.5032375363626557,4529.1378272639,0.1877783196424676,0.4594151698161937,4134.736528345746,0.1315097755182975,0.6321552533612589,5689.397280251321,2201.344782749887,0.0911653790977508,0.0618134448255064,0.4435047455847331,3991.542710262609,0.291015625,0.0845230515432073,0.3912279589027596,19.05211900692295,0.2600134756154488,1
0.4621155606220326,4159.0400455983,0.1322681081677404,0.3801408317627299,3421.267485864584,0.1487010416129195,0.5733242465176008,5159.918218658395,0.0765400147393001,0.5973852169717204,5376.466952745492,2088.116740729226,0.097051653953709,0.065727359393729,0.4758920439148672,4283.028395233804,0.3349609375,0.0763884800244958,0.566696113074205,2.26678445229682,0.3732462832512784,1
0.4585054521813348,4126.549069632021,0.1591166010758668,0.5169466600119849,4652.519940107862,0.1494703763462711,0.5557227693550495,5001.504924195438,0.0864899901217509,0.4624921741129922,4162.429567016936,1658.1845802882783,0.0802835289724746,0.0544428459104558,0.4604797199287197,4144.317479358483,0.416015625,0.0879904722711638,0.4875618904239372,2.9253713425436234,0.3790815367665185,1
0.5621008462667851,5058.907616401058,0.1635978690927888,0.5235587484353916,4712.028735918528,0.1784874906596286,0.5680062212815085,5112.055991533571,0.0892942884565671,0.4787877155672605,4309.089440105345,1691.3490267331424,0.0682194228790866,0.0467268718387003,0.3777747070826469,3399.972363743824,0.5400390625,0.090262687611694,0.5632506685175805,3.942754679623064,0.3157964621270286,1
0.5666426607627173,5099.783946864462,0.1984570730866541,0.5952213020895518,5356.991718805962,0.1325450453659256,0.5135776370401843,4622.198733361644,0.1487662981795746,0.4705834928251693,4235.25143542651,1617.8026878031376,0.0610252253879922,0.0464792565341653,0.3808819335979613,3427.9374023816526,0.3916015625,0.0916632868815189,0.5872821608724076,45.22072638717539,0.2787392533702533,0
0.4114064888509886,3702.658399658897,0.2236570164215161,0.5353334172727746,4818.000755454973,0.1457089404546465,0.2461826905881473,2215.644215293328,0.2129258999624416,0.4780431011456935,4302.3879103112295,1656.4818312605182,0.0649820575656072,0.0453285343731559,0.5181948354787526,4663.753519308783,0.51171875,0.0847304749395308,0.5251052207637358,51.985416855609806,0.1866889378742056,0
0.5918690203357004,5326.821183021294,0.2151817910504475,0.3755837568376604,3380.2538115389416,0.186479726141864,0.4074154621274252,3666.739159146816,0.1684386145117359,0.5695434385593697,5125.890947034342,2030.6434067424848,0.089893378860413,0.0577268542328811,0.4076603773062034,3668.943395755827,0.3408203125,0.0899534860044485,0.4204484400827748,38.68125648761528,0.2030668835774116,0
0.6887401487480341,6198.661338732306,0.112049345113483,0.3968063757842632,3571.257382058373,0.1457350498939303,0.4922241805055146,4430.01762454962,0.2339317699043593,0.5627286102954134,5064.55749265874,1949.9915920889969,0.0771221790162416,0.0538338941185615,0.4467251440902115,4020.526296811896,0.3125,0.0863852310718611,0.2620635206874762,24.10984390324781,0.1500962345059405,0
0.6360020216110218,5724.0181944991855,0.0997041176024193,0.4469754802913293,4022.7793226219487,0.1340834584365287,0.4264841126660885,3838.3570139947938,0.1867311158970878,0.5500846264101578,4950.761637691452,1853.494193123248,0.0575684041294915,0.0403298317061927,0.4665549588580123,4198.994629722105,0.3232421875,0.0835846776520143,0.3753944641684505,40.542602130192655,0.1926077119126312,0
0.5595986664385857,5036.387997947278,0.1403091175052791,0.3999630222257005,3599.667200031306,0.2275078793399801,0.6186420320189763,5567.7782881707935,0.249560265094444,0.5414181774397002,4872.7635969573,1905.3416385975231,0.088270864506876,0.0593377970680714,0.3885807787048601,3497.227008343738,0.3427734375,0.0961572597779371,0.5414595640115035,50.89719901708133,0.2370749311963046,0
0.5732636231761761,5159.372608585606,0.1235404456977045,0.3402816785805859,3062.535107225261,0.1438718442698389,0.4467415881879597,4020.67429369164,0.2495276291525601,0.4141465554157155,3727.318998741445,1406.5954666883529,0.0380272848869581,0.0268424338224155,0.4227528242357412,3804.775418121668,0.396484375,0.0926496389470603,0.6623026963541989,66.23026963541986,0.194948706767352,0
0.6290850046250854,5661.765041625768,0.098654502231463,0.5088482423358663,4579.634181022802,0.1179591025674438,0.4397451372142101,3957.706234927911,0.2104766286460549,0.5856807397885179,5271.12665809666,2080.4424526828047,0.0785070831930911,0.0507941316001369,0.4899924142704842,4409.931728434372,0.2802734375,0.0880517444517644,0.5520717174809505,48.03023942084268,0.2091957880415096,0
0.7157155235842858,6441.439712258553,0.1873393488709637,0.3786745682341634,3408.0711141074707,0.1490511246869684,0.3732389446252057,3359.15050162686,0.2009289761758903,0.4836389981305221,4352.750983174711,1635.3346375498318,0.0411105275580621,0.0340351779553171,0.3893649121465888,3504.284209319296,0.5029296875,0.0759116795532925,0.4366419828638289,27.94508690328504,0.2526176289881365,0
0.5255027447621087,4729.524702858973,0.2755512653202337,0.6359447488955685,5723.502740060137,0.1120650335638529,0.3929338418789028,3536.404576910121,0.2725302743916405,0.4419038880068036,3977.1349920612433,1634.1612322547962,0.0726485536406827,0.0524514582329331,0.2668449148275365,2401.6042334478298,0.353515625,0.1185355170287421,0.2833398834701169,9.350216154513856,0.2130421443397595,0
0.4925299168520374,4432.769251668341,0.2311097807113464,0.4897974315353525,4408.1768838181815,0.1688864724418108,0.4232630975465158,3809.3678779186425,0.2116909930348628,0.5615929033305975,5054.336129975392,2061.513292113245,0.0899537796838026,0.059282829589124,0.2645917362758932,2381.3256264830425,0.376953125,0.1219083963376159,0.5018503335208391,5.52035366872923,0.2872037915354265,0
0.5768203172933648,5191.382855640282,0.1225612918440014,0.5046713079721465,4542.041771749323,0.2334283439733243,0.4349763977476507,3914.787579728855,0.2513712064779925,0.473631183950185,4262.680655551671,1790.8396591160715,0.0948464060547577,0.0645649187976201,0.2748717743056342,2473.8459687507143,0.3955078125,0.1214731067430041,0.3122564455410156,8.743180475148435,0.21258050412101,0
0.6291257252424097,5662.131527181685,0.2243444353567928,0.4405803492427538,3965.2231431847713,0.2123473984868979,0.5079547492493125,4571.5927432438175,0.1837351653027438,0.4938625032606259,4444.762529345646,1740.293235190593,0.0822430306620882,0.0588302022142868,0.2611057391754752,2349.951652579274,0.345703125,0.1245400072413189,0.3795818881462766,11.007874756242025,0.2288446090347624,0
0.5817118733977842,5235.406860580057,0.1960321296318297,0.5380428323609252,4842.385491248333,0.1598399308646458,0.4589291202839321,4130.362082555395,0.1763872450830152,0.4789726976017138,4310.75427841542,1623.3924685295071,0.0341523946622824,0.0300469902177253,0.2687988221638688,2419.189399474832,0.3115234375,0.1228865418832513,0.3385157046999386,15.233206711497235,0.2477182390033157,0
0.4854852900414483,4369.367610373038,0.1426047783971464,0.3240319060764784,2916.2871546883057,0.1550001890508629,0.4851306693385608,4366.176024047041,0.1823917769244018,0.4371745734675479,3934.571161207937,1540.2327052727308,0.0618037928897903,0.0438097777204344,0.2618479408547695,2356.63146769292,0.3974609375,0.1216166011044541,0.3823492775286497,1.529397110114599,0.4067922916664236,0
0.512553070502197,4612.977634519772,0.2353374770406472,0.5339327652913017,4805.394887621711,0.2107103918632303,0.4408300773145402,3967.470695830879,0.1486217312760228,0.5701542569709074,5131.3883127381705,2037.220343469606,0.0719470465993608,0.0483826032016676,0.2646921577038663,2382.2294193347884,0.3994140625,0.1220011846921802,0.3303605033463025,4.955407550194539,0.299803291661169,0
0.4883680798590722,4395.312718731643,0.1207194385454347,0.4822278618655906,4340.0507567903305,0.2388801528393364,0.4257787230344896,3832.008507310401,0.1811123788792556,0.4801129933341282,4321.016940007146,1822.4170002142332,0.0898437491138276,0.060381272508851,0.2697373077423617,2427.635769681256,0.4755859375,0.1223849055759954,0.3815023064734943,10.300562274784346,0.2589972492559768,0
0.6046547539643264,5441.892785678917,0.1366167191502086,0.4578005731333794,4120.205158200411,0.239388377069272,0.4864113652579972,4377.702287321976,0.1669844335733539,0.3786566468719642,3407.909821847677,1409.2465553201694,0.0712498806545094,0.0493903640398189,0.2672845026103961,2405.56052349356,0.47265625,0.1209241039556444,0.4990288598465332,21.45824097340093,0.2373292543078855,0
0.5544976090946478,4990.478481851829,0.1275310829026056,0.5617505469066633,5055.754922159983,0.1369758858405138,0.422894871607454,3806.053844467086,0.1391801919740274,0.5264267580278762,4737.84082225089,1923.0131171754704,0.0821365209499519,0.0555767054574783,0.2743388474013617,2469.0496266122564,0.5068359375,0.1209980447741471,0.2890312881935177,8.670938645805535,0.2522516679448649,0
0.5452788456390212,4907.509610751171,0.1270926134931181,0.5664394351474987,5097.954916327493,0.1505480228791182,0.4655521164771723,4189.969048294538,0.2277392912257609,0.5192908111559024,4673.617300403111,1930.302048751588,0.0854654942734254,0.0592891427863436,0.2687504599698282,2418.754139728456,0.37109375,0.1229727107874287,0.4300232077195521,8.600464154391041,0.2997159582395741,0
0.5669975118335825,5102.97760650226,0.1089762927467361,0.4988051432489569,4489.246289240613,0.2656727099025106,0.5418267539955636,4876.440785960092,0.121191087597495,0.6169290752511221,5552.361677260099,2169.469118715665,0.0774226958804348,0.0525787755730062,0.2652041304968944,2386.837174472048,0.4755859375,0.119773333187494,0.253434040414113,4.5618127274540345,0.3250022966864772,0
0.5546068791380983,4991.46191224287,0.1150659853364426,0.5351441298226239,4816.297168403607,0.1348484817169586,0.5442239092867978,4898.015183581188,0.127313494760231,0.4857531100897843,4371.777990808062,1721.4847620393964,0.0579288404817592,0.0419051688923332,0.2764216336778245,2487.7947031004182,0.4541015625,0.1203027195671286,0.39643719581233,13.478864657619214,0.2072505868647016,0
0.5919799272774077,5327.81934549668,0.1321371413494922,0.3228324973932507,2905.4924765392607,0.1673341598991428,0.4718862789930601,4246.976510937545,0.192469490989208,0.5986866219001983,5388.1795971017655,2189.026838173863,0.0715517213799892,0.051405243530605,0.3521864522866656,3169.6780705799843,0.30859375,0.1382438177922801,0.4460078700464136,27.65248794287765,0.2383187626224331,0
0.6082661996675945,5474.395797008328,0.122668441243663,0.388107202131657,3492.9648191849165,0.218962689267652,0.4288454411886768,3859.608970698088,0.2555877843806298,0.4454240781139564,4008.8167030255872,1678.5833054258962,0.0761637666338967,0.0537297956365734,0.3580880979137126,3222.792881223408,0.408203125,0.1366460166279537,0.4112647920195134,22.208298769053737,0.2154829401557138,0
0.6283654150808208,5655.288735727391,0.1243998656913059,0.3835874337448079,3452.286903703268,0.1876667639902914,0.4336205923075821,3902.585330768232,0.2050182922621028,0.518627723328966,4667.64950996069,1955.6831974432168,0.0911310915311063,0.0656396343989683,0.343670442309119,3093.0339807820787,0.421875,0.1385142586971039,0.4396117341373813,30.333209655479298,0.2425973045690259,0
0.6597359402285774,5937.62346205717,0.116729769579104,0.45930087067144,4133.7078360429605,0.1681114498300966,0.5454625143070251,4909.16262876323,0.2183861693884223,0.5398319576605674,4858.487618945098,1981.5638414149537,0.084671200492811,0.0620302974726647,0.3450957965408613,3105.862168867758,0.3701171875,0.1352610706102956,0.4103549929282475,13.952069759560418,0.243100597825827,0
0.6263644013074245,5637.279611766825,0.1080681448285053,0.4782248746517422,4304.023871865678,0.1805741462682319,0.2790127737844118,2511.114964059705,0.1626889217029697,0.509120788118791,4582.087093069137,1905.3225984785945,0.1082108394321254,0.0761512876039948,0.3432300163372716,3089.070147035442,0.3759765625,0.1378439891808475,0.3975472785023476,15.901891140093907,0.2422031868769965,0
0.6006828959075582,5406.146063168048,0.116103648727112,0.4098235619190943,3688.412057271844,0.2155442324229392,0.4497449663879639,4047.704697491688,0.1872460992574144,0.4857114026715925,4371.402624044324,1761.9394933133162,0.0933427048114009,0.068807351919745,0.3529023183592724,3176.120865233461,0.5400390625,0.1398988302693012,0.4708280513105407,28.72051112994297,0.2088343852787973,0
0.5998646269931992,5398.781642938813,0.1445341248917838,0.3794278093096072,3414.8502837864507,0.1734004590707552,0.4821634138371711,4339.470724534535,0.212806336060767,0.5316239264310499,4784.615337879418,1913.3442974004067,0.0950402521339264,0.0701484255825495,0.3515958609725426,3164.36274875288,0.4052734375,0.1367324541281186,0.5431173846414721,20.638460616375934,0.2225595939618537,0
0.5281164525767797,4753.048073191019,0.1194507491920022,0.5040067758178831,4536.060982360956,0.1859738719059468,0.3631332860326212,3268.199574293579,0.1837506989149079,0.5405869214024875,4865.2822926223735,1868.975156933437,0.0753048904030302,0.0560549015797537,0.3559436391185972,3203.492752067367,0.2861328125,0.1356267155038477,0.440125045172476,25.52725262000361,0.2645290727186328,0
0.6025927429968039,5423.334686971234,0.1068100443514232,0.4169540741577704,3752.586667419912,0.1353950742746606,0.5269335406710912,4742.401866039824,0.1961486421516649,0.5856849595296156,5271.164635766548,1969.0123676667704,0.0879223939808046,0.0599361034251174,0.2582727624828213,2324.454862345399,0.5908203125,0.1203865373230031,0.4526524170994949,3.168566919696464,0.3187885127862479,1
0.5452773197641706,4907.495877877563,0.1352978360435847,0.5787978775659415,5209.180898093482,0.144861204582395,0.3883743809564166,3495.369428607741,0.1313686062118103,0.4877657027817312,4389.891325035576,1606.150357163304,0.0745843294741027,0.052877178023081,0.2680055086872733,2412.0495781854456,0.4755859375,0.1213806425769863,0.3382202445015913,6.764404890031828,0.2533219774135099,1
0.5687073207275779,5118.365886548184,0.1199294453428755,0.548554440568518,4936.989965116632,0.1463822491541978,0.4113177074244297,3701.859366819876,0.1183013182469783,0.4110450162843156,3699.4051465588313,1356.0310832685534,0.0532953198723544,0.0448276878504099,0.2860180374007908,2574.162336607112,0.4736328125,0.1188125745283615,0.518316363141629,16.586123620532128,0.2610141266440118,1
0.6224705193898618,5602.234674508743,0.1268528663522009,0.4580021490854577,4122.019341769124,0.1853627888770308,0.3167503959160897,2850.753563244817,0.1252739186450683,0.4697065075266838,4227.35856774015,1527.3602655654574,0.0437701436140547,0.035105299896495,0.2707616251841937,2436.854626657748,0.2939453125,0.12136062996998,0.4371091341433805,13.987492292588176,0.2923160219885114,1
0.4593540281496864,4134.1862533471785,0.2659465149870308,0.5080277518182015,4572.249766363814,0.1650787031733614,0.3558964578296962,3203.0681204672856,0.1504220240675523,0.4714974469199468,4243.477022279511,1649.9680582458814,0.0567628442016156,0.041641543541223,0.2538979684329443,2285.0817158965,0.3984375,0.1130337380288981,0.4592544061610739,27.55526436966443,0.2036231249992851,0
0.5250802881979795,4725.722593781824,0.238602939605472,0.5395881603396592,4856.293443056962,0.1346620613203753,0.5455509166765761,4909.958250089189,0.1294382491026584,0.5401635613691141,4861.472052322018,1992.1205177523989,0.097681073113266,0.0680382084305161,0.2062037415400816,1855.8336738607293,0.4267578125,0.118285665889142,0.3537502536990066,25.116268012629472,0.197819111236418,0
0.4995762735593563,4496.1864620342185,0.2045739769283132,0.5184898190558471,4666.408371502627,0.1311954165662296,0.5812960100747886,5231.664090673114,0.1511419263773621,0.5193893611830986,4674.504250647873,1787.077226543053,0.0884537269143211,0.0646305535755927,0.2295364175969283,2065.8277583723534,0.388671875,0.1083573632888744,0.3574902581312962,28.59922065050368,0.2091519306448324,0
0.4641154494894237,4177.039045404815,0.1763449535452537,0.6118323803641282,5506.491423277128,0.1417665274068224,0.3698099070688155,3328.2891636193385,0.1556576846400494,0.4910094872061238,4419.085384855092,1793.5195454002285,0.0819246507982601,0.0594548740147565,0.2168493583196382,1951.644224876747,0.4892578125,0.118334475980357,0.4176216366295394,35.08021747688131,0.1629827332151905,0
0.5314588969951393,4783.130072956255,0.2014695193038535,0.4711015336068465,4239.913802461645,0.1511088339734069,0.3445760968746436,3101.1848718718,0.1417863304530095,0.5294852086918477,4765.366878226641,1877.033625254692,0.0855117631363802,0.0612527450142927,0.2274117096364397,2046.70538672796,0.388671875,0.1181055109120386,0.3757228489324843,30.80927361246372,0.2028759923301877,0
0.4532283867709015,4079.055480938108,0.2131274576186822,0.5343000201544132,4808.700181389713,0.129487222640557,0.4450038971605017,4005.035074444511,0.1211796113187914,0.5727329901054268,5154.596910948832,1957.404262122089,0.0869052976145333,0.0627213636530157,0.278820743498984,2509.3866914908544,0.5263671875,0.1119949455656115,0.3948501291014982,17.768255809567425,0.2119624409095283,0
0.5547339161351251,4992.60524521611,0.1278180454872201,0.5052318118277715,4547.086306449936,0.1197182897309517,0.4828210309788432,4345.389278809596,0.1389387767782722,0.6048467756993707,5443.620981294343,1940.276116647996,0.0687324531950838,0.0521731456027081,0.2831542558007696,2548.388302206925,0.369140625,0.1144271203788406,0.4004170857078272,26.427527656716588,0.185465721164664,0
0.4754813904964372,4279.332514467929,0.1474210646223576,0.4974454516553946,4477.009064898548,0.1757069607299899,0.491984358372299,4427.85922535068,0.2343287278340361,0.4835989367374302,4352.39043063688,1676.8444381177485,0.0607743647562302,0.0468953277401717,0.2718697860964989,2446.828074868493,0.3662109375,0.1180011290041522,0.4174894845770883,28.80677443581909,0.1916438162976924,0
0.4480099983641304,4032.089985277164,0.2815978546414789,0.4489727480755022,4040.7547326795207,0.1431099962696579,0.409765752159018,3687.891769431173,0.1687542111132555,0.5386691212753166,4848.022091477848,1875.2391221609373,0.0823554334444863,0.0599163487501885,0.2766762132082043,2490.085918873836,0.4853515625,0.1087317642754124,0.5398591668628826,36.71042334667601,0.2071715023532402,0
0.4825288070832874,4342.759263749613,0.1869336004110015,0.5321173830784088,4789.056447705681,0.1143846034389511,0.4317779131825114,3886.001218642607,0.094120978601067,0.521966804300511,4697.701238704621,1755.28068835649,0.071562927980781,0.0514234957566765,0.2353819061586412,2118.437155427764,0.3505859375,0.1166635926950132,0.3674442141630619,27.55831606222964,0.1835205050620082,0
0.4451466088180278,4006.319479362253,0.1607431835702601,0.7049685520918885,6344.716968827007,0.1527127723066566,0.5263315674025736,4736.984106623161,0.1393693651350453,0.4750147887110571,4275.133098399508,1612.6265122038155,0.0693231402795878,0.052266147265265,0.2737026615462848,2463.323953916577,0.3330078125,0.1111145379738236,0.4561376659462442,26.455984624882163,0.2004469881523572,0
0.4815179544742722,4333.661590268447,0.2288838092192675,0.5613488720265054,5052.139848238543,0.1726968858994002,0.304767100437707,2742.903903939359,0.0794828464608961,0.5761816448186197,5185.634803367567,1938.235412686712,0.0647177261192165,0.0479074077788285,0.2631843561347124,2368.6592052124147,0.337890625,0.1092674264209028,0.4093360725232517,38.88692688970894,0.1834898236742866,0
0.5418192464103306,4876.37321769298,0.1801071992695856,0.4304359449999685,3873.923504999726,0.1312431027462143,0.3227391439312029,2904.652295380827,0.086228464900261,0.4024336013539485,3621.902412185545,1372.79463595733,0.0663542080330211,0.0501361287183648,0.1780124397165071,1602.111957448567,0.4384765625,0.1236317577832502,0.4782602506350258,39.69560080270716,0.192866666925795,0
0.5729927366563307,5156.934629906966,0.1977985406361758,0.4152555284757429,3737.299756281696,0.1945671725138397,0.5009490494239623,4508.541444815659,0.2020719187702854,0.5526885332254361,4974.196799028924,1944.3976357331387,0.073183801935653,0.0533992268303986,0.1792770766162723,1613.4936895464466,0.3037109375,0.1186823627522604,0.3420243323733956,21.889557271897324,0.2188547308682214,1
0.5685763195397584,5117.186875857823,0.1995385682934423,0.5031381154457697,4528.243039011928,0.1604167765290294,0.4784061945647235,4305.65575108251,0.3124671150660332,0.5905792631165049,5315.213368048547,2126.975807109678,0.0876455609112794,0.0593286240911828,0.2543587287786002,2289.2285590074016,0.5908203125,0.1090608054534059,0.3719783916636929,15.25111405821141,0.2186183480206641,1
0.5878046124431461,5290.2415119883,0.1040774467854919,0.4980286138690562,4482.257524821505,0.132089693723071,0.4969756928333661,4472.781235500293,0.1652588040178485,0.5854952223618426,5269.4570012566055,2084.7920219419034,0.0942563840479986,0.0666513974495391,0.2299561786588119,2069.6056079293026,0.396484375,0.1138492920472087,0.3976388162326407,23.460690157725807,0.2328105121825984,1
0.5590972813661432,5031.8755322952975,0.144835564100267,0.4536467781389752,4082.8210032507727,0.1192001006201799,0.4945800191935368,4451.22017274184,0.1363275443246682,0.6212115793688111,5590.90421431931,2229.6017498400224,0.0939184454917536,0.0615317384114269,0.1721473307464447,1549.3259767180036,0.4853515625,0.1216730879026915,0.5646409514280168,23.7149199599767,0.2405885464315941,1
0.6791948284904741,6112.753456414247,0.1132043017594627,0.5064657423729142,4558.191681356223,0.1433762776792292,0.4491991810700213,4042.792629630193,0.2110176094224861,0.5195279038021637,4675.751134219472,1803.7004424790607,0.0583341882585227,0.0448925789924624,0.2652276417156689,2387.048775441011,0.36328125,0.104075809110209,0.4337901902548186,28.630152556818032,0.2236322113594796,1
0.5187076955900632,4668.369260310567,0.1548884437597482,0.4549076959227477,4094.1692633047137,0.1836688439326717,0.3417947831116672,3076.1530480050005,0.2604525081222534,0.3897170735972593,3507.4536623753397,1356.392602297469,0.0507026480124932,0.0397790579360555,0.3126005363578863,2813.4048272209857,0.486328125,0.1138339159622298,0.4149106731104309,28.2139257715093,0.217240877707256,0
0.4746537353443424,4271.8836180990975,0.2404990363918916,0.352770338765479,3174.9330488893097,0.1281158291972935,0.3345965710071657,3011.369139064492,0.2451558025185463,0.5463567373189924,4917.210635870916,1922.112297743629,0.0847287407584065,0.059910162037676,0.2995380876333173,2695.84278869986,0.4345703125,0.1038834557588781,0.6671148765709736,42.69535210054231,0.213422270514749,0
0.6063770794439809,5457.3937149958165,0.197497249053973,0.4531662941588109,4078.496647429288,0.1408280337814992,0.5020201566704214,4518.181410033803,0.3043231316613471,0.496481005501287,4468.329049511583,1734.315979716342,0.081022087841438,0.0573946470792293,0.2701166336017941,2431.0497024161605,0.296875,0.1136713735912289,0.5471007828450379,43.76806262760304,0.2422863170662322,0
0.557539120701103,5017.852086309925,0.2577834147890616,0.3243336846247541,2919.003161622786,0.1407247235712692,0.3595621903494367,3236.059713144917,0.2019169260841185,0.6441187019243819,5797.068317319449,2054.733932590772,0.0759022056167553,0.0555451950957399,0.2206799679945914,1986.1197119513265,0.30078125,0.1204589143525794,0.5111315451433207,51.113154514332045,0.2203379438805406,0
0.4444986911083433,4000.4882199750905,0.2651246307450684,0.3460555003833493,3114.4995034501385,0.1322018038277263,0.434468509645612,3910.216586810525,0.2781294047879341,0.4642483967807065,4178.235571026348,1553.1663393570318,0.0788352262175679,0.0581671532139112,0.2629534747832504,2366.581273049251,0.298828125,0.1207055683499306,0.6203564109214336,60.17457185937906,0.2480414567201268,0
0.4939140758832409,4445.226682949164,0.1614860143412342,0.4556114787920768,4100.503309128696,0.1588388853675502,0.3922849881666004,3530.564893499401,0.2452608666554811,0.599552655877984,5395.9739029018565,2079.327208712414,0.0818377563018978,0.0594084995651196,0.2552195461471782,2296.9759153246137,0.322265625,0.1208527029708431,0.4600857672803366,49.22917709899602,0.1855797362682992,0
0.5514881171368126,4963.393054231325,0.1403038734534225,0.4200318675480247,3780.2868079322193,0.1197766289344365,0.4772155899309584,4294.94030937864,0.2179607884329392,0.56003555963727,5040.320036735428,1955.9092093357792,0.0750315580176646,0.0536563608977119,0.2602441903974782,2342.1977135773072,0.4951171875,0.1182774695778873,0.5335933953497373,37.35153767448161,0.23258881152995,0
0.5429997990855678,4886.9981917701225,0.1758732898649296,0.5541281514083923,4987.153362675533,0.1497413981365312,0.5095309102150745,4585.77819193566,0.2549418296440316,0.5127437377514211,4614.693639762784,1763.8646157464364,0.0594224681371883,0.0470599286143017,0.2392429481262629,2153.186533136366,0.4140625,0.123462282213066,0.5759088842577976,48.95225516191278,0.2106833580704515,0
0.3007090647626918,2706.381582864229,0.1063420965962043,0.4635194833966627,4171.675350569964,0.1012465877158338,0.4077243520010071,3669.519168009055,0.1076070000566571,0.5196087039228622,4676.478335305762,1802.1040658593345,0.0299855315646684,0.0250261067030564,0.3599269961131705,3239.342965018536,0.28125,0.1094408574682119,0.3864860139888164,14.686468531575027,0.2484712629915866,0
0.5633499029660305,5070.149126694288,0.2397071926988236,0.4911371642392758,4420.23447815347,0.1333271841158261,0.4683576127175323,4215.2185144578025,0.1139996374250459,0.4470595660125547,4023.536094113004,1635.1486113097028,0.0585777831568824,0.0471265520799773,0.3263210281023617,2936.889252921252,0.36328125,0.1120039858055279,0.3428230297884784,11.313159983019789,0.3313342140568305,0
0.4607849790362037,4147.064811325694,0.2285951490775845,0.4787668572780639,4308.9017155025895,0.174951536673295,0.5000375375377614,4500.337837839849,0.088708515485871,0.4726400324805804,4253.760292325197,1612.175909152843,0.0596266800872366,0.0482100535542351,0.320566496374409,2885.098467369683,0.2958984375,0.1142246624831327,0.563768017060237,9.020288272963793,0.2616317083616875,0
0.4844829498278826,4360.346548450951,0.2135215760762175,0.4446860995137962,4002.174895624164,0.2032943368799801,0.4397948109976492,3958.153298978849,0.157333785954378,0.5461509772617907,4915.358795356126,2138.184969585145,0.0754016940469049,0.0549505350954286,0.3109042816498833,2798.1385348489366,0.4169921875,0.1166731521873043,0.5085058123421333,8.136092997474133,0.2554259724306468,0
0.5097767953441188,4587.991158097064,0.1162144292305368,0.5011896459337433,4510.706813403678,0.1534198870467697,0.4996869567362872,4497.182610626594,0.1032012799500572,0.5316873568879744,4785.186211991762,1946.945202191755,0.0897354702413387,0.0647737609003116,0.3108710786911877,2797.8397082206866,0.5205078125,0.1181896640016288,0.44081937297107,8.8163874594214,0.3421916257615519,0
0.5707555819179614,5136.800237261649,0.1515461849756764,0.4968264874165574,4471.438386749011,0.1448460657748114,0.5115998902200275,4604.3990119802365,0.1546383090954523,0.5278407965445031,4750.567168900525,1724.8718544286166,0.0477515364021493,0.0389521028610997,0.3107910889616792,2797.119800655108,0.3974609375,0.1182669327146219,0.3290539905886817,6.910133802362315,0.2640481355008162,0
0.4942363468065412,4448.127121258858,0.1463584581880155,0.5339396749871472,4805.457074884334,0.1429179430710981,0.4931347365074445,4438.212628567017,0.096301023756194,0.5122523887487213,4610.271498738493,1738.0659757501585,0.0694237395421444,0.0527275507495453,0.3193880987585251,2874.4928888267277,0.3505859375,0.115610948424404,0.2536105178471931,10.398031231734915,0.2062209450933347,0
0.5538483725780778,4984.63535320269,0.1806504813535933,0.4470944965455827,4023.850468910236,0.232268857531086,0.5100967128191247,4590.870415372129,0.0877710111357532,0.5204324259970534,4683.891833973466,1734.738670289804,0.0822152013611702,0.064286364764859,0.3011477070275904,2710.3293632483146,0.2919921875,0.1171344637296821,0.4063223972718996,5.6885135618065945,0.2999738584438429,0
0.5777507566785104,5199.7568101065945,0.1212988796956228,0.422649010940837,3803.841098467525,0.1060217218171378,0.3087520589322971,2778.768530390674,0.1388393985806853,0.4606715153045605,4146.0436377410415,1482.1591348979566,0.0385585287415102,0.0353997394095953,0.3340034297863973,3006.030868077569,0.521484375,0.1140641423124162,0.4067694319470345,8.948927502834758,0.2891915461359038,0
0.3294585025116473,2965.126522604827,0.1338034795386372,0.5471855033237231,4924.669529913503,0.186975729115112,0.4080605544046784,3672.544989642112,0.0749141970571231,0.5351233744598339,4816.1103701385055,1840.988052392524,0.076149407677364,0.0589859761057759,0.3065378622071138,2758.840759864021,0.2841796875,0.1167608661031671,0.4191091442407093,9.639510317536317,0.2292771934980552,0
0.5708621814475024,5137.759633027483,0.1933130957967448,0.5185846789391999,4667.262110452805,0.1582875377153028,0.3292168689265421,2962.9518203388893,0.1567599391168881,0.4895815860506728,4406.234274456065,1624.853864289785,0.0496205765145378,0.046290665406738,0.3278148205618957,2950.3333850570784,0.435546875,0.1167723421459396,0.6320283099064109,22.120990846724396,0.2427809519093828,0
0.5428229375199287,4885.4064376793685,0.1781327190780308,0.4386344000851585,3947.7096007664472,0.2272675721782195,0.5310464724623852,4779.418252161449,0.0941952726867775,0.4923446186242769,4431.101567618503,1714.5395730364628,0.0795125072220405,0.0652588353438865,0.2976301449963232,2678.671304966896,0.2783203125,0.1178860822998132,0.5,1.0,0.5,0
0.5377172289643182,4839.455060678848,0.1515365100840429,0.511894681860255,4607.052136742292,0.1366001777641355,0.4544640940616097,4090.176846554482,0.1339065663187214,0.5006859478422867,4506.1735305806,1699.4375462529963,0.0554533152105379,0.0459771892451194,0.3166322696651014,2849.690426985921,0.345703125,0.1156752788789273,0.3812728188960497,10.675638929089391,0.2246872810353096,0
0.517892506188583,4661.032555697254,0.1240561368691151,0.5169439616309504,4652.495654678555,0.1398384068774978,0.5404217272363571,4863.795545127219,0.2317541067683956,0.4815719402410371,4334.147462169321,1641.594647488506,0.0373582373351186,0.0353555753714502,0.3815587546329622,3434.0287916966554,0.3017578125,0.1136205206891204,0.5760065676911912,34.56039406147147,0.2762512627790812,0
0.4705881499460626,4235.2933495145535,0.1646844436794041,0.4072034556607703,3664.8311009469335,0.1388199320495016,0.4076522793962879,3668.870514566581,0.1677623664005212,0.4776698023261193,4299.028220935093,1697.6247832809383,0.0663900193696983,0.0549869144957741,0.4075597817285232,3668.038035556713,0.29296875,0.1408958836241501,0.5549603161720298,53.27619035251487,0.2366897528962177,0
0.515842040446329,4642.578364016965,0.1505831246249303,0.3187988927456046,2869.190034710444,0.1700671114168007,0.477938609765983,4301.447487893852,0.1095013667331581,0.5070664945590962,4563.598451031875,1798.5564673810327,0.0591467145652857,0.0493363968712386,0.4033698005452845,3630.328204907557,0.2998046875,0.139695376192297,0.5633326007770102,52.38993187226193,0.2511523059787693,0
0.6479930180020623,5831.937162018548,0.157206808429485,0.4150469712873753,3735.422741586372,0.1637252220158211,0.527004277034253,4743.038493308263,0.0904558645989992,0.3932534028897573,3539.28062600782,1371.8951410013972,0.0538911835130159,0.0483424261362043,0.4130270748941546,3717.243674047386,0.2978515625,0.1352210938509928,0.6036464190738562,65.19381325997648,0.2423278067747481,0
0.4838258575363438,4354.432717827072,0.1348439002337932,0.4689036212984218,4220.132591685792,0.1512951271165551,0.264491006319882,2380.419056878929,0.0929263135877984,0.4530677989715395,4077.61019074385,1608.99322742944,0.0643697183750893,0.0531278998664722,0.4569110430055538,4112.199387049998,0.458984375,0.1265325658269309,0.6539377258072565,63.43195940330388,0.2346104383433826,0
0.5455852099970981,4910.266889973882,0.1692931750553423,0.4615463904833333,4153.917514349997,0.1176806924896741,0.253688132834811,2283.1931955133045,0.1337915784861114,0.4742677490157649,4268.409741141895,1537.7410452569904,0.037747052197842,0.0332306244514079,0.4402131787729219,3961.918608956288,0.294921875,0.1331337418507291,0.6913104739909169,98.1660873067102,0.2411396054218721,0
0.5380322633102417,4842.290369792162,0.1701047175505058,0.3164873773756002,2848.386396380396,0.1178974838848787,0.3934084078212754,3540.6756703914925,0.1321307736804337,0.3981077449140054,3582.969704226045,1250.9171949097674,0.0306282086058009,0.0263037840811755,0.3974670028195882,3577.203025376282,0.3828125,0.1390175168177331,0.7013502264309461,104.50118373821093,0.2425273175761225,0
0.5775263060677893,5197.7367546101,0.1711843090912226,0.6055325729960928,5449.793156964821,0.1183475836212895,0.480008891053919,4320.080019485272,0.0649798479317165,0.687899884462999,6191.098960166964,2152.4514020116453,0.0514264038889584,0.0419043145684152,0.3906668818334689,3516.001936501234,0.4619140625,0.1337296657424162,0.6818793110260454,102.28189665390688,0.2270083116582655,0
0.6540935,5886.841499999989,0.1607674287573016,0.5742597504858539,5168.33775437269,0.1329091319526666,0.4634592998850796,4171.133698965703,0.1544109949469199,0.5606641200821182,5045.97708073904,1760.663638839873,0.0393364870834434,0.0384134912648609,0.4094948698869521,3685.453828982561,0.3115234375,0.1291013981985119,0.6042214578825686,84.59100410355968,0.1952669681986662,0
0.6672838054650289,6005.554249185255,0.1380197831982745,0.3968771018410245,3571.893916569231,0.1199507981686159,0.3739895034172092,3365.90553075489,0.1834317783698734,0.5461006780634344,4914.90610257093,1937.142136691936,0.0926482167312098,0.0689502246755101,0.3890254461562621,3501.22901540636,0.3916015625,0.1088094358178102,0.4988630673111534,10.974987480845378,0.2872625813029164,1
0.5110024078312457,4599.02167048122,0.2168530651240738,0.6186277470409901,5567.649723368884,0.1607458619681094,0.4692362706335432,4223.1264357018845,0.1764724776786576,0.407886925753171,3670.9823317785294,1481.483383449032,0.0794868011420563,0.0566817968676362,0.3513325444186129,3161.9928997675183,0.345703125,0.1135940928172383,0.4937242572710008,19.25524603356904,0.2673289269179338,1
0.4864629997484896,4378.166997736419,0.1510973692611658,0.4159377806031329,3743.4400254282,0.2435241280030515,0.516090455279663,4644.814097516981,0.1275176501065876,0.5159458379841441,4643.512541857284,1833.4159604417555,0.0897483500139087,0.0644933647743753,0.3907111407643923,3516.4002668795306,0.427734375,0.1085272979117796,0.4398874858036747,6.598312287055119,0.264269210955204,1
0.4504893928197549,4054.4045353778106,0.1054997306120633,0.46276405827204,4164.876524448376,0.1552122667423184,0.4644302308125092,4179.872077312603,0.1873258412135084,0.4855793218725693,4370.213896853124,1749.2591106326902,0.0931969147144571,0.0695878499959851,0.3766925898021403,3390.233308219268,0.4072265625,0.1116660183970885,0.4765368290682941,11.913420726707356,0.2478930369134423,1
0.5023048912453685,4520.744021208312,0.1677322056234767,0.4708593372812386,4237.734035531147,0.1228007949299775,0.4795644917047957,4316.080425343169,0.1888003446502363,0.5528278137433134,4975.450323689817,2052.88328256363,0.0803693311029503,0.0543951248678082,0.2458660469239169,2212.794422315252,0.349609375,0.1388994156962014,0.5072419352493168,21.304161280471305,0.2811978979190165,0
0.5671900350986259,5104.710315887638,0.1848187373251003,0.502050992646558,4518.458933819023,0.1517878895823365,0.4652760943140034,4187.48484882604,0.1978976373785072,0.5116854309706939,4605.168878736229,1947.9894353391928,0.0872521371771142,0.0590532740082002,0.2483917887647424,2235.5260988826794,0.380859375,0.1402349754347316,0.5101585992704324,16.83523377592427,0.2564398412947574,0
0.5756632163067964,5180.96894676117,0.1407928823726244,0.5727581645229312,5154.823480706374,0.149146436577014,0.4910150254921721,4419.135229429551,0.2245138652567319,0.5411721428650471,4870.549285785436,2064.6049521152013,0.0932534462790817,0.0636057672558961,0.2443053963362118,2198.7485670259107,0.3603515625,0.1437355095806871,0.4101925034187723,10.665005088888083,0.2666810106441452,0
0.6669721399870923,6002.749259883796,0.1120614634461471,0.4981644987859222,4483.480489073279,0.1611128829256079,0.4802725651340226,4322.45308620621,0.2038476240025651,0.475849170384156,4282.6425334574,1779.2407882354337,0.0692891534474543,0.0468150453654737,0.233600288717048,2102.4025984534264,0.5439453125,0.1448046303382217,0.4646338556263255,7.434141690021208,0.2679817827813264,0
0.5553957383636653,4998.561645272994,0.1276632451896707,0.3901434164114094,3511.290747702679,0.1377005462190855,0.5303340354312464,4773.006318881218,0.2406296233030218,0.4717430434868007,4245.687391381218,1802.462520795196,0.079211331961694,0.0528441362328629,0.2539808021873641,2285.827219686286,0.3857421875,0.1385854379414113,0.5695736382427355,16.51763550903933,0.2781310302188259,0
0.4690037481962481,4221.033733766223,0.1229569152088558,0.4322078408640861,3889.870567776783,0.1872266606888432,0.4664521489755949,4198.069340780362,0.1929047000800522,0.5630904463144248,5067.814016829829,2194.321601923355,0.0989645428571639,0.0633152917344194,0.3903858987929229,3513.473089136304,0.2822265625,0.1184575186335994,0.4889564512320814,23.469909659139915,0.2455681785541909,0
0.8227730857857001,7404.957772071295,0.1851302652469325,0.493977261876261,4445.795356886347,0.1267591707889366,0.4777520041422482,4299.768037280227,0.192451685902685,0.5711973606864799,5140.77624617832,2194.575864122433,0.0920462991544486,0.0608530290883981,0.2621886816811795,2359.698135130612,0.345703125,0.1375095614092347,0.3175395598429414,10.79634503466001,0.2268760157328672,0
0.3205408179585213,2884.8673616266933,0.2581979258046182,0.4204452394224991,3784.00715480249,0.1232660323875579,0.4835900644852461,4352.3105803672215,0.1777367872099183,0.5666411826265771,5099.770643639176,1924.1381406922296,0.078001200014663,0.0557596882916292,0.2899045098958059,2609.140589062243,0.3701171875,0.1288322897366433,0.4949464493711864,3.9595715949694914,0.4131395682002725,0
0.4161185417959518,3745.0668761635607,0.3621220058870287,0.48391407836623,4355.226705296085,0.1526155075530396,0.4717633356134757,4245.8700205212845,0.2141273322455166,0.4580462007636216,4122.415806872597,1651.142025899033,0.0742146331479482,0.0524290863110761,0.285398848730642,2568.589638575785,0.419921875,0.1365403520256467,0.3395472100178495,6.45139699033914,0.2529127612340271,0
0.5292265089816377,4763.03858083475,0.2098367486485012,0.5032085224679557,4528.876702211624,0.2266093285953011,0.5356182765783528,4820.564489205164,0.1736139918118183,0.6246199220109796,5621.579298098817,2343.625504043409,0.0885313311894011,0.0577543148056282,0.2408345583293011,2167.511024963712,0.4033203125,0.1492002541929026,0.5014460340945307,5.014460340945306,0.3378285528412919,0
0.5288311005936147,4759.479905342536,0.1335903006693243,0.4440263872632525,3996.237485369291,0.145315600808254,0.5273644088150418,4746.279679335376,0.1771080391356916,0.5376395769681287,4838.756192713158,2066.735655141484,0.0883015165308052,0.0584970398786945,0.2941370689455201,2647.233620509686,0.3173828125,0.1320934514530374,0.3706972768944769,13.715799245095644,0.2521614153965868,0
0.4436793600207016,3993.1142401863226,0.1148295244257663,0.5220406651662434,4698.3659864961855,0.1977020033346756,0.4827036323664208,4344.332691297795,0.2113013737118475,0.5932191370864777,5338.972233778307,2293.9365753381867,0.0977654352581972,0.0625494640787182,0.2824841151512953,2542.3570363616627,0.314453125,0.1371125241163139,0.4688587821267475,12.659187117422183,0.271196128656966,0
